Efficiency(%)	JSC(mA/cm^2)	VOC(V)	FF				 
1.00997E+0	3.96195E-7	2.44565E-3	-2.49498E-3
9.99967E-1	3.89597E-7	2.40492E-3	-2.42913E-3
9.89970E-1	3.83613E-7	2.36798E-3	-2.36791E-3
9.79970E-1	3.76735E-7	2.32552E-3	-2.30196E-3
9.69975E-1	3.69130E-7	2.27858E-3	-2.23249E-3
9.59967E-1	3.65088E-7	2.25363E-3	-2.18526E-3
9.49973E-1	3.58566E-7	2.21337E-3	-2.12388E-3
9.39970E-1	3.50732E-7	2.16501E-3	-2.05560E-3
9.29962E-1	3.46658E-7	2.13986E-3	-2.01009E-3
9.19964E-1	3.39710E-7	2.09698E-3	-1.94863E-3
9.09963E-1	3.34403E-7	2.06422E-3	-1.89733E-3
8.99966E-1	3.29616E-7	2.03467E-3	-1.84963E-3
8.89965E-1	3.26135E-7	2.01318E-3	-1.80976E-3
8.79965E-1	3.21844E-7	1.98669E-3	-1.76588E-3
8.69930E-1	3.16864E-7	1.95595E-3	-1.71873E-3
8.59929E-1	3.12281E-7	1.92766E-3	-1.67440E-3
8.49929E-1	3.06270E-7	1.89056E-3	-1.62307E-3
8.39928E-1	3.01851E-7	1.86328E-3	-1.58083E-3
8.29932E-1	2.96000E-7	1.82716E-3	-1.53174E-3
8.19927E-1	2.91665E-7	1.80040E-3	-1.49111E-3
8.09931E-1	2.86961E-7	1.77136E-3	-1.44917E-3
7.99935E-1	2.79416E-7	1.72479E-3	-1.39366E-3
7.89932E-1	2.76544E-7	1.70706E-3	-1.36208E-3
7.79922E-1	2.72766E-7	1.68374E-3	-1.32645E-3
7.69925E-1	2.65906E-7	1.64140E-3	-1.27652E-3
7.59929E-1	2.61105E-7	1.61176E-3	-1.23719E-3
7.49931E-1	2.57248E-7	1.58795E-3	-1.20288E-3
7.39926E-1	2.54142E-7	1.56878E-3	-1.17250E-3
7.29931E-1	2.48690E-7	1.53512E-3	-1.13185E-3
7.19934E-1	2.44525E-7	1.50941E-3	-1.09765E-3
7.09934E-1	2.40056E-7	1.48183E-3	-1.06263E-3
6.99932E-1	2.37701E-7	1.46729E-3	-1.03738E-3
6.89930E-1	2.33829E-7	1.44339E-3	-1.00590E-3
6.79932E-1	2.29902E-7	1.41915E-3	-9.74671E-4
6.69929E-1	2.24988E-7	1.38881E-3	-9.39805E-4
6.59930E-1	2.19532E-7	1.35514E-3	-9.03328E-4
6.49934E-1	2.16954E-7	1.33922E-3	-8.79198E-4
6.39934E-1	2.14336E-7	1.32306E-3	-8.55224E-4
6.29928E-1	2.10272E-7	1.29798E-3	-8.25890E-4
6.19926E-1	2.06425E-7	1.27423E-3	-7.97906E-4
6.09924E-1	2.04254E-7	1.26083E-3	-7.76777E-4
5.99924E-1	2.02779E-7	1.25172E-3	-7.58523E-4
5.89924E-1	1.98204E-7	1.22348E-3	-7.29052E-4
5.79924E-1	1.94284E-7	1.19928E-3	-7.02519E-4
5.69926E-1	1.91130E-7	1.17981E-3	-6.79199E-4
5.59925E-1	1.88499E-7	1.16357E-3	-6.58095E-4
5.49928E-1	1.84350E-7	1.13796E-3	-6.32119E-4
5.39927E-1	1.81901E-7	1.12285E-3	-6.12378E-4
5.29928E-1	1.78910E-7	1.10438E-3	-5.91155E-4
5.19924E-1	1.76211E-7	1.08772E-3	-5.71245E-4
5.09923E-1	1.72055E-7	1.06207E-3	-5.47043E-4
4.99923E-1	1.71146E-7	1.05646E-3	-5.33482E-4
4.89916E-1	1.67544E-7	1.03422E-3	-5.11800E-4
4.79916E-1	1.62882E-7	1.00544E-3	-4.87403E-4
4.69915E-1	1.60959E-7	9.93574E-4	-4.71611E-4
4.59918E-1	1.59574E-7	9.85025E-4	-4.57607E-4
4.49914E-1	1.56274E-7	9.64654E-4	-4.38395E-4
4.39918E-1	1.52931E-7	9.44019E-4	-4.19486E-4
4.29914E-1	1.50966E-7	9.31889E-4	-4.04679E-4
4.19920E-1	1.47777E-7	9.12204E-4	-3.86922E-4
4.09920E-1	1.45754E-7	8.99716E-4	-3.72537E-4
3.99921E-1	1.42841E-7	8.81735E-4	-3.56186E-4
3.89922E-1	1.41352E-7	8.72543E-4	-3.43660E-4
3.79917E-1	1.39168E-7	8.59062E-4	-3.29669E-4
3.69917E-1	1.36959E-7	8.45426E-4	-3.15896E-4
3.59918E-1	1.34519E-7	8.30364E-4	-3.01882E-4
3.49920E-1	1.32437E-7	8.17512E-4	-2.88953E-4
3.39909E-1	1.29766E-7	8.01025E-4	-2.75026E-4
3.29914E-1	1.27739E-7	7.88512E-4	-2.62769E-4
3.19915E-1	1.24466E-7	7.68309E-4	-2.48276E-4
3.09914E-1	1.23830E-7	7.64383E-4	-2.39286E-4
2.99917E-1	1.21963E-7	7.52858E-4	-2.28076E-4
2.89915E-1	1.19374E-7	7.36877E-4	-2.15789E-4
2.79918E-1	1.17977E-7	7.28253E-4	-2.05910E-4
2.69918E-1	1.15966E-7	7.15840E-4	-1.95170E-4
2.59918E-1	1.14182E-7	7.04827E-4	-1.85048E-4
2.49918E-1	1.12597E-7	6.95043E-4	-1.75458E-4
2.39919E-1	1.10874E-7	6.84407E-4	-1.65861E-4
2.29916E-1	1.09333E-7	6.74895E-4	-1.56737E-4
2.19914E-1	1.07732E-7	6.65012E-4	-1.47723E-4
2.09912E-1	1.05511E-7	6.51302E-4	-1.38097E-4
1.99909E-1	1.04187E-7	6.43130E-4	-1.29866E-4
1.89909E-1	1.02544E-7	6.32988E-4	-1.21424E-4
1.79910E-1	1.01458E-7	6.26284E-4	-1.13813E-4
1.69904E-1	9.96784E-8	6.15299E-4	-1.05598E-4
1.59898E-1	9.89965E-8	6.11090E-4	-9.86990E-5
1.49896E-1	9.71870E-8	5.99920E-4	-9.08339E-5
1.39894E-1	9.56944E-8	5.90706E-4	-8.34710E-5
1.29894E-1	9.42384E-8	5.81719E-4	-7.63250E-5
1.19897E-1	9.30515E-8	5.74392E-4	-6.95635E-5
1.09899E-1	9.14875E-8	5.64738E-4	-6.26910E-5
9.98976E-2	9.04538E-8	5.58357E-4	-5.63419E-5
8.98960E-2	8.93765E-8	5.51707E-4	-5.00972E-5
7.98993E-2	8.83764E-8	5.45533E-4	-4.40280E-5
6.98991E-2	8.68066E-8	5.35843E-4	-3.78333E-5
5.99046E-2	8.58125E-8	5.29707E-4	-3.20524E-5
4.98974E-2	8.49950E-8	5.24660E-4	-2.64436E-5
3.98998E-2	8.39540E-8	5.18235E-4	-2.08863E-5
2.99001E-2	8.27090E-8	5.10549E-4	-1.54197E-5
1.99001E-2	8.13873E-8	5.02391E-4	-1.00986E-5
9.89938E-3	8.03477E-8	4.95973E-4	-4.95942E-6
-9.87053E-5	7.95058E-8	4.90777E-4	4.89316E-8
-9.95731E-3	7.84783E-8	4.84434E-4	4.87238E-6
-1.99606E-2	7.74730E-8	4.78228E-4	9.64215E-6
-2.99594E-2	7.61177E-8	4.69862E-4	1.42190E-5
-3.99585E-2	7.51364E-8	4.63805E-4	1.87202E-5
-4.99580E-2	7.42423E-8	4.58286E-4	2.31263E-5
-5.99651E-2	7.33499E-8	4.52777E-4	2.74251E-5
-6.99623E-2	7.15399E-8	4.41604E-4	3.12077E-5
-7.99644E-2	7.00026E-8	4.32115E-4	3.49028E-5
-8.99639E-2	6.93076E-8	4.27825E-4	3.88776E-5
-9.99668E-2	6.82863E-8	4.21520E-4	4.25637E-5
-1.09963E-1	6.66200E-8	4.11235E-4	4.56774E-5
-1.19968E-1	6.58477E-8	4.06467E-4	4.92556E-5
-1.29970E-1	6.43816E-8	3.97417E-4	5.21741E-5
-1.39970E-1	6.21863E-8	3.83866E-4	5.42725E-5
-1.49967E-1	6.04141E-8	3.72927E-4	5.64916E-5
-1.59969E-1	5.92823E-8	3.65940E-4	5.91304E-5
-1.69972E-1	5.70487E-8	3.52152E-4	6.04607E-5
-1.79972E-1	5.58416E-8	3.44701E-4	6.26632E-5
-1.89972E-1	5.42314E-8	3.34762E-4	6.42377E-5
-1.99975E-1	5.26913E-8	3.25255E-4	6.56999E-5
-2.09986E-1	5.11491E-8	3.15735E-4	6.69697E-5
-2.19985E-1	4.88276E-8	3.01405E-4	6.69743E-5
-2.29985E-1	4.72990E-8	2.91969E-4	6.78268E-5
-2.39989E-1	4.54428E-8	2.80511E-4	6.79996E-5
-2.49985E-1	4.35471E-8	2.68809E-4	6.78771E-5
-2.59986E-1	4.16745E-8	2.57250E-4	6.75570E-5
-2.69987E-1	3.99004E-8	2.46299E-4	6.71692E-5
-2.79987E-1	3.75366E-8	2.31707E-4	6.55304E-5
-2.89984E-1	3.49355E-8	2.15651E-4	6.31671E-5
-2.99978E-1	3.18066E-8	1.96337E-4	5.94917E-5
-3.09980E-1	2.96719E-8	1.83160E-4	5.73494E-5
-3.19982E-1	2.68540E-8	1.65765E-4	5.35777E-5
-3.29980E-1	2.35352E-8	1.45279E-4	4.84234E-5
-3.39981E-1	2.07163E-8	1.27878E-4	4.39154E-5
-3.49988E-1	1.83382E-8	1.13199E-4	4.00184E-5
-3.59988E-1	1.57678E-8	9.73321E-5	3.53923E-5
-3.69986E-1	1.22645E-8	7.57068E-5	2.82934E-5
-3.79982E-1	9.63453E-9	5.94724E-5	2.28267E-5
-3.89992E-1	6.46577E-9	3.99122E-5	1.57226E-5
-3.99987E-1	3.07478E-9	1.89801E-5	7.66849E-6
-4.09981E-1	-2.43807E-10	-1.50498E-6	-6.23246E-7
-4.19979E-1	-3.64609E-9	-2.25067E-5	-9.54783E-6
-4.29978E-1	-7.44926E-9	-4.59831E-5	-1.99714E-5
-4.39981E-1	-1.13934E-8	-7.03296E-5	-3.12563E-5
-4.49983E-1	-1.56640E-8	-9.66914E-5	-4.39490E-5
-4.59986E-1	-2.09784E-8	-1.29496E-4	-6.01682E-5
-4.69983E-1	-2.62751E-8	-1.62192E-4	-7.69974E-5
-4.79985E-1	-3.20485E-8	-1.97830E-4	-9.59147E-5
-4.89981E-1	-3.91202E-8	-2.41483E-4	-1.19517E-4
-4.99989E-1	-4.62867E-8	-2.85720E-4	-1.44300E-4
-5.09989E-1	-5.48689E-8	-3.38697E-4	-1.74476E-4
-5.19989E-1	-6.47873E-8	-3.99922E-4	-2.10055E-4
-5.29987E-1	-7.60490E-8	-4.69438E-4	-2.51309E-4
-5.39991E-1	-8.87409E-8	-5.47783E-4	-2.98786E-4
-5.49985E-1	-1.04777E-7	-6.46772E-4	-3.59308E-4
-5.59986E-1	-1.23766E-7	-7.63988E-4	-4.32144E-4
-5.69985E-1	-1.45830E-7	-9.00185E-4	-5.18275E-4
-5.79983E-1	-1.73852E-7	-1.07316E-3	-6.28702E-4
-5.89983E-1	-2.08797E-7	-1.28887E-3	-7.68093E-4
-5.99983E-1	-2.50183E-7	-1.54434E-3	-9.35937E-4
-6.09988E-1	-3.01308E-7	-1.85993E-3	-1.14599E-3
-6.19986E-1	-3.64959E-7	-2.25283E-3	-1.41083E-3
-6.29987E-1	-4.44345E-7	-2.74287E-3	-1.74543E-3
-6.40019E-1	-5.42067E-7	-3.34609E-3	-2.16319E-3
-6.50024E-1	-6.60990E-7	-4.08019E-3	-2.67901E-3
-6.60024E-1	-8.10797E-7	-5.00492E-3	-3.33673E-3
-6.70022E-1	-9.93886E-7	-6.13510E-3	-4.15217E-3
-6.80032E-1	-1.22003E-6	-7.53105E-3	-5.17309E-3
-6.90028E-1	-1.49981E-6	-9.25809E-3	-6.45287E-3
-7.00027E-1	-1.84344E-6	-1.13793E-2	-8.04625E-3
-7.10025E-1	-2.26564E-6	-1.39854E-2	-1.00303E-2
-7.20028E-1	-2.78271E-6	-1.71772E-2	-1.24930E-2
-7.30027E-1	-3.40991E-6	-2.10488E-2	-1.55214E-2
-7.40024E-1	-4.16835E-6	-2.57306E-2	-1.92336E-2
-7.50027E-1	-5.08012E-6	-3.13588E-2	-2.37575E-2
-7.60031E-1	-6.16981E-6	-3.80852E-2	-2.92384E-2
-7.70032E-1	-7.46205E-6	-4.60620E-2	-3.58275E-2
-7.80028E-1	-8.98278E-6	-5.54493E-2	-4.36889E-2
-7.90034E-1	-1.07603E-5	-6.64216E-2	-5.30054E-2
-8.00033E-1	-1.28272E-5	-7.91802E-2	-6.39867E-2
-8.10032E-1	-1.52094E-5	-9.38852E-2	-7.68182E-2
-8.20032E-1	-1.79395E-5	-1.10738E-1	-9.17257E-2
-8.30038E-1	-2.10464E-5	-1.29916E-1	-1.08925E-1
-8.40034E-1	-2.45608E-5	-1.51610E-1	-1.28644E-1
-8.50036E-1	-2.85132E-5	-1.76007E-1	-1.51124E-1
-8.60031E-1	-3.29395E-5	-2.03330E-1	-1.76637E-1
-8.70030E-1	-3.78659E-5	-2.33740E-1	-2.05415E-1
-8.80030E-1	-4.33313E-5	-2.67477E-1	-2.37766E-1
-8.90028E-1	-4.93610E-5	-3.04698E-1	-2.73929E-1
-9.00032E-1	-5.59937E-5	-3.45640E-1	-3.14229E-1
-9.10032E-1	-6.32647E-5	-3.90523E-1	-3.58978E-1
-9.20029E-1	-7.12018E-5	-4.39517E-1	-4.08453E-1
-9.30027E-1	-7.98321E-5	-4.92791E-1	-4.62938E-1
-9.40034E-1	-8.92059E-5	-5.50654E-1	-5.22862E-1
-9.50035E-1	-9.93370E-5	-6.13191E-1	-5.88438E-1
-9.60034E-1	-1.10258E-4	-6.80605E-1	-6.60004E-1
-9.70040E-1	-1.22023E-4	-7.53228E-1	-7.38042E-1
-9.80035E-1	-1.34637E-4	-8.31093E-1	-8.22727E-1
-9.90035E-1	-1.48150E-4	-9.14506E-1	-9.14539E-1
-1.00003E+0	-1.62584E-4	-1.00360E+0	-1.01377E+0
-1.01003E+0	-1.77964E-4	-1.09854E+0	-1.12077E+0
6.79996E-5	4.90777E-4	-4.09981E-1	3.34575E-1
2.17187E-4	1.20762E-3	-4.99977E-1	3.56114E-1
2.26312E-4	1.19192E-3	-5.09997E-1	3.68577E-1
1.88050E-5	3.13282E-4	-1.79970E-1	3.30197E-1
1.19017E-4	8.34654E-4	-4.19980E-1	3.36131E-1
2.68908E-4	1.28922E-3	-5.29979E-1	3.89631E-1
