Efficiency(%)	JSC(mA/cm^2)	VOC(V)	FF				 
1.01000E+0	1.08480E-5	6.30698E-2	-6.47362E-2
9.99998E-1	3.22190E-4	1.87320E+0	-1.90365E+0
9.90000E-1	1.99190E-4	1.15808E+0	-1.16514E+0
9.79999E-1	6.38831E-5	3.71413E-1	-3.69903E-1
9.70010E-1	-7.84948E-5	-4.56365E-1	4.49877E-1
9.60001E-1	-2.29177E-4	-1.33242E+0	1.29993E+0
9.50006E-1	-3.77803E-4	-2.19653E+0	2.12065E+0
9.40002E-1	-5.17339E-4	-3.00778E+0	2.87330E+0
9.29999E-1	-6.54185E-4	-3.80340E+0	3.59467E+0
9.20002E-1	-7.84308E-4	-4.55993E+0	4.26336E+0
9.10001E-1	-9.04074E-4	-5.25624E+0	4.86096E+0
8.99997E-1	-1.01163E-3	-5.88157E+0	5.37947E+0
8.89995E-1	-1.11447E-3	-6.47948E+0	5.86047E+0
8.79995E-1	-1.20147E-3	-6.98529E+0	6.24697E+0
8.69967E-1	-1.28681E-3	-7.48145E+0	6.61445E+0
8.59968E-1	-1.35788E-3	-7.89465E+0	6.89954E+0
8.49967E-1	-1.42933E-3	-8.31006E+0	7.17813E+0
8.39969E-1	-1.48781E-3	-8.65006E+0	7.38392E+0
8.29966E-1	-1.53865E-3	-8.94564E+0	7.54530E+0
8.19960E-1	-1.59052E-3	-9.24721E+0	7.70563E+0
8.09967E-1	-1.63619E-3	-9.51273E+0	7.83028E+0
7.99967E-1	-1.67055E-3	-9.71250E+0	7.89602E+0
7.89968E-1	-1.71127E-3	-9.94924E+0	7.98738E+0
7.79960E-1	-1.74881E-3	-1.01675E+1	8.05919E+0
7.69962E-1	-1.77631E-3	-1.03274E+1	8.08099E+0
7.59960E-1	-1.80089E-3	-1.04703E+1	8.08638E+0
7.49963E-1	-1.83223E-3	-1.06525E+1	8.11888E+0
7.39955E-1	-1.85071E-3	-1.07599E+1	8.09133E+0
7.29960E-1	-1.87569E-3	-1.09052E+1	8.08978E+0
7.19957E-1	-1.90328E-3	-1.10656E+1	8.09628E+0
7.09959E-1	-1.91848E-3	-1.11540E+1	8.04761E+0
6.99959E-1	-1.93763E-3	-1.12653E+1	8.01346E+0
6.89960E-1	-1.96022E-3	-1.13966E+1	7.99107E+0
6.79961E-1	-1.97554E-3	-1.14857E+1	7.93682E+0
6.69956E-1	-1.99369E-3	-1.15912E+1	7.89188E+0
6.59958E-1	-2.01270E-3	-1.17017E+1	7.84823E+0
6.49959E-1	-2.03362E-3	-1.18234E+1	7.80966E+0
6.39962E-1	-2.04455E-3	-1.18869E+1	7.73087E+0
6.29953E-1	-2.05162E-3	-1.19280E+1	7.63627E+0
6.19955E-1	-2.06474E-3	-1.20043E+1	7.56314E+0
6.09955E-1	-2.08284E-3	-1.21095E+1	7.50637E+0
5.99952E-1	-2.09890E-3	-1.22029E+1	7.44020E+0
5.89955E-1	-2.10333E-3	-1.22287E+1	7.33167E+0
5.79957E-1	-2.10538E-3	-1.22406E+1	7.21444E+0
5.69959E-1	-2.12072E-3	-1.23298E+1	7.14173E+0
5.59963E-1	-2.13801E-3	-1.24303E+1	7.07368E+0
5.49967E-1	-2.13937E-3	-1.24382E+1	6.95183E+0
5.39964E-1	-2.14687E-3	-1.24818E+1	6.84931E+0
5.29966E-1	-2.16350E-3	-1.25785E+1	6.77456E+0
5.19960E-1	-2.17256E-3	-1.26312E+1	6.67449E+0
5.09962E-1	-2.18108E-3	-1.26807E+1	6.57182E+0
4.99959E-1	-2.18639E-3	-1.27116E+1	6.45860E+0
4.89959E-1	-2.18947E-3	-1.27295E+1	6.33834E+0
4.79959E-1	-2.20042E-3	-1.27931E+1	6.24002E+0
4.69961E-1	-2.21336E-3	-1.28684E+1	6.14597E+0
4.59960E-1	-2.22597E-3	-1.29417E+1	6.04945E+0
4.49958E-1	-2.23216E-3	-1.29777E+1	5.93436E+0
4.39957E-1	-2.22840E-3	-1.29558E+1	5.79268E+0
4.29959E-1	-2.23043E-3	-1.29676E+1	5.66620E+0
4.19958E-1	-2.23919E-3	-1.30185E+1	5.55614E+0
4.09957E-1	-2.24793E-3	-1.30694E+1	5.44500E+0
3.99957E-1	-2.25234E-3	-1.30950E+1	5.32260E+0
3.89959E-1	-2.26055E-3	-1.31427E+1	5.20846E+0
3.79956E-1	-2.26397E-3	-1.31626E+1	5.08254E+0
3.69954E-1	-2.26524E-3	-1.31700E+1	4.95152E+0
3.59956E-1	-2.27242E-3	-1.32117E+1	4.83297E+0
3.49957E-1	-2.28446E-3	-1.32817E+1	4.72362E+0
3.39947E-1	-2.29201E-3	-1.33256E+1	4.60367E+0
3.29951E-1	-2.29572E-3	-1.33472E+1	4.47553E+0
3.19950E-1	-2.29254E-3	-1.33287E+1	4.33387E+0
3.09951E-1	-2.30061E-3	-1.33756E+1	4.21320E+0
2.99953E-1	-2.31621E-3	-1.34663E+1	4.10495E+0
2.89951E-1	-2.31077E-3	-1.34347E+1	3.95875E+0
2.79953E-1	-2.32339E-3	-1.35081E+1	3.84312E+0
2.69952E-1	-2.32802E-3	-1.35350E+1	3.71321E+0
2.59953E-1	-2.32339E-3	-1.35081E+1	3.56856E+0
2.49952E-1	-2.32430E-3	-1.35134E+1	3.43262E+0
2.39955E-1	-2.33924E-3	-1.36002E+1	3.31651E+0
2.29951E-1	-2.34055E-3	-1.36078E+1	3.18002E+0
2.19950E-1	-2.33677E-3	-1.35859E+1	3.03680E+0
2.09948E-1	-2.34968E-3	-1.36609E+1	2.91472E+0
1.99938E-1	-2.34322E-3	-1.36234E+1	2.76812E+0
1.89944E-1	-2.34863E-3	-1.36548E+1	2.63583E+0
1.79942E-1	-2.35669E-3	-1.37017E+1	2.50560E+0
1.69945E-1	-2.34870E-3	-1.36552E+1	2.35837E+0
1.59942E-1	-2.36106E-3	-1.37271E+1	2.23124E+0
1.49943E-1	-2.36479E-3	-1.37488E+1	2.09505E+0
1.39945E-1	-2.35962E-3	-1.37187E+1	1.95108E+0
1.29944E-1	-2.36234E-3	-1.37345E+1	1.81374E+0
1.19949E-1	-2.37469E-3	-1.38063E+1	1.68298E+0
1.09948E-1	-2.36937E-3	-1.37754E+1	1.53921E+0
9.99477E-2	-2.37114E-3	-1.37857E+1	1.40025E+0
8.99417E-2	-2.38617E-3	-1.38731E+1	1.26806E+0
7.99468E-2	-2.37840E-3	-1.38279E+1	1.12347E+0
6.99465E-2	-2.38119E-3	-1.38441E+1	9.84094E-1
5.99482E-2	-2.39070E-3	-1.38994E+1	8.46794E-1
4.99368E-2	-2.38383E-3	-1.38595E+1	7.03352E-1
3.99375E-2	-2.38920E-3	-1.38907E+1	5.63780E-1
2.99392E-2	-2.39571E-3	-1.39285E+1	4.23790E-1
1.99370E-2	-2.38786E-3	-1.38829E+1	2.81284E-1
9.93586E-3	-2.38917E-3	-1.38905E+1	1.40258E-1
-6.53267E-5	-2.40001E-3	-1.39535E+1	-9.26361E-4
-9.89270E-3	-2.40555E-3	-1.39858E+1	-1.40607E-1
-1.99018E-2	-2.39997E-3	-1.39533E+1	-2.82211E-1
-2.98994E-2	-2.41226E-3	-1.40248E+1	-4.26151E-1
-3.99010E-2	-2.40838E-3	-1.40022E+1	-5.67787E-1
-4.98948E-2	-2.40780E-3	-1.39988E+1	-7.09826E-1
-5.99008E-2	-2.41674E-3	-1.40508E+1	-8.55340E-1
-6.98977E-2	-2.40535E-3	-1.39846E+1	-9.93385E-1
-7.98972E-2	-2.40642E-3	-1.39908E+1	-1.13600E+0
-8.98962E-2	-2.41999E-3	-1.40697E+1	-1.28538E+0
-9.99019E-2	-2.41586E-3	-1.40457E+1	-1.42601E+0
-1.09902E-1	-2.41509E-3	-1.40412E+1	-1.56825E+0
-1.19905E-1	-2.42220E-3	-1.40826E+1	-1.71603E+0
-1.29902E-1	-2.42829E-3	-1.41180E+1	-1.86377E+0
-1.39899E-1	-2.42340E-3	-1.40895E+1	-2.00316E+0
-1.49899E-1	-2.42276E-3	-1.40858E+1	-2.14578E+0
-1.59898E-1	-2.43300E-3	-1.41453E+1	-2.29859E+0
-1.69899E-1	-2.41958E-3	-1.40673E+1	-2.42889E+0
-1.79899E-1	-2.42450E-3	-1.40959E+1	-2.57708E+0
-1.89901E-1	-2.43379E-3	-1.41499E+1	-2.73078E+0
-1.99901E-1	-2.42907E-3	-1.41225E+1	-2.86901E+0
-2.09905E-1	-2.43866E-3	-1.41783E+1	-3.02448E+0
-2.19905E-1	-2.44392E-3	-1.42088E+1	-3.17540E+0
-2.29906E-1	-2.43578E-3	-1.41615E+1	-3.30876E+0
-2.39909E-1	-2.43973E-3	-1.41845E+1	-3.45832E+0
-2.49910E-1	-2.44992E-3	-1.42437E+1	-3.61753E+0
-2.59911E-1	-2.45826E-3	-1.42922E+1	-3.77510E+0
-2.69911E-1	-2.44935E-3	-1.42404E+1	-3.90614E+0
-2.79911E-1	-2.44450E-3	-1.42122E+1	-4.04284E+0
-2.89907E-1	-2.44511E-3	-1.42158E+1	-4.18826E+0
-2.99906E-1	-2.45331E-3	-1.42634E+1	-4.34724E+0
-3.09906E-1	-2.44242E-3	-1.42001E+1	-4.47226E+0
-3.19908E-1	-2.45616E-3	-1.42800E+1	-4.64257E+0
-3.29907E-1	-2.45692E-3	-1.42844E+1	-4.78916E+0
-3.39907E-1	-2.45278E-3	-1.42603E+1	-4.92601E+0
-3.49916E-1	-2.46177E-3	-1.43126E+1	-5.08965E+0
-3.59912E-1	-2.45895E-3	-1.42962E+1	-5.22905E+0
-3.69912E-1	-2.44893E-3	-1.42380E+1	-5.35243E+0
-3.79911E-1	-2.45817E-3	-1.42917E+1	-5.51785E+0
-3.89914E-1	-2.46499E-3	-1.43313E+1	-5.67885E+0
-3.99910E-1	-2.46135E-3	-1.43102E+1	-5.81584E+0
-4.09909E-1	-2.45791E-3	-1.42902E+1	-5.95292E+0
-4.19907E-1	-2.46672E-3	-1.43414E+1	-6.11997E+0
-4.29908E-1	-2.46865E-3	-1.43526E+1	-6.27063E+0
-4.39906E-1	-2.45777E-3	-1.42894E+1	-6.38819E+0
-4.49907E-1	-2.46861E-3	-1.43524E+1	-6.56223E+0
-4.59908E-1	-2.47050E-3	-1.43634E+1	-6.71324E+0
-4.69907E-1	-2.46734E-3	-1.43450E+1	-6.85042E+0
-4.79907E-1	-2.47602E-3	-1.43955E+1	-7.02082E+0
-4.89904E-1	-2.47620E-3	-1.43965E+1	-7.16759E+0
-4.99911E-1	-2.46989E-3	-1.43598E+1	-7.29536E+0
-5.09913E-1	-2.46806E-3	-1.43492E+1	-7.43581E+0
-5.19913E-1	-2.47697E-3	-1.44010E+1	-7.60901E+0
-5.29911E-1	-2.46720E-3	-1.43442E+1	-7.72474E+0
-5.39917E-1	-2.47428E-3	-1.43853E+1	-7.89319E+0
-5.49918E-1	-2.48441E-3	-1.44442E+1	-8.07231E+0
-5.59917E-1	-2.47727E-3	-1.44027E+1	-8.19546E+0
-5.69913E-1	-2.48808E-3	-1.44656E+1	-8.37817E+0
-5.79911E-1	-2.48371E-3	-1.44402E+1	-8.51018E+0
-5.89909E-1	-2.48033E-3	-1.44205E+1	-8.64512E+0
-5.99907E-1	-2.48805E-3	-1.44654E+1	-8.81900E+0
-6.09915E-1	-2.48639E-3	-1.44558E+1	-8.96014E+0
-6.19906E-1	-2.47961E-3	-1.44163E+1	-9.08209E+0
-6.29910E-1	-2.48120E-3	-1.44256E+1	-9.23457E+0
-6.39942E-1	-2.49091E-3	-1.44820E+1	-9.41836E+0
-6.49949E-1	-2.49521E-3	-1.45070E+1	-9.58215E+0
-6.59949E-1	-2.48529E-3	-1.44494E+1	-9.69090E+0
-6.69949E-1	-2.49121E-3	-1.44838E+1	-9.86117E+0
-6.79954E-1	-2.49603E-3	-1.45118E+1	-1.00278E+1
-6.89955E-1	-2.49023E-3	-1.44781E+1	-1.01517E+1
-6.99955E-1	-2.49436E-3	-1.45021E+1	-1.03159E+1
-7.09955E-1	-2.50238E-3	-1.45487E+1	-1.04969E+1
-7.19951E-1	-2.49122E-3	-1.44838E+1	-1.05972E+1
-7.29949E-1	-2.50064E-3	-1.45386E+1	-1.07850E+1
-7.39949E-1	-2.50625E-3	-1.45712E+1	-1.09573E+1
-7.49948E-1	-2.49957E-3	-1.45324E+1	-1.10757E+1
-7.59948E-1	-2.50190E-3	-1.45459E+1	-1.12339E+1
-7.69952E-1	-2.50880E-3	-1.45860E+1	-1.14132E+1
-7.79952E-1	-2.50832E-3	-1.45833E+1	-1.15592E+1
-7.89960E-1	-2.50394E-3	-1.45578E+1	-1.16871E+1
-7.99960E-1	-2.50155E-3	-1.45439E+1	-1.18237E+1
-8.09956E-1	-2.50827E-3	-1.45830E+1	-1.20036E+1
-8.19958E-1	-2.51439E-3	-1.46185E+1	-1.21815E+1
-8.29962E-1	-2.50237E-3	-1.45487E+1	-1.22712E+1
-8.39960E-1	-2.50840E-3	-1.45837E+1	-1.24489E+1
-8.49963E-1	-2.51149E-3	-1.46017E+1	-1.26127E+1
-8.59961E-1	-2.49717E-3	-1.45184E+1	-1.26883E+1
-8.69959E-1	-2.50716E-3	-1.45765E+1	-1.28872E+1
-8.79958E-1	-2.51165E-3	-1.46026E+1	-1.30586E+1
-8.89955E-1	-2.50485E-3	-1.45631E+1	-1.31712E+1
-8.99960E-1	-2.50599E-3	-1.45697E+1	-1.33254E+1
-9.09956E-1	-2.51414E-3	-1.46171E+1	-1.35172E+1
-9.19956E-1	-2.51686E-3	-1.46329E+1	-1.36805E+1
-9.29958E-1	-2.50950E-3	-1.45901E+1	-1.37888E+1
-9.39964E-1	-2.50912E-3	-1.45879E+1	-1.39351E+1
-9.49966E-1	-2.51748E-3	-1.46365E+1	-1.41303E+1
-9.59965E-1	-2.52575E-3	-1.46846E+1	-1.43259E+1
-9.69967E-1	-2.51938E-3	-1.46476E+1	-1.44387E+1
-9.79967E-1	-2.52156E-3	-1.46602E+1	-1.46001E+1
-9.89966E-1	-2.52278E-3	-1.46673E+1	-1.47563E+1
-9.99962E-1	-2.51263E-3	-1.46083E+1	-1.48453E+1
-1.00996E+0	-2.51069E-3	-1.45970E+1	-1.49821E+1
8.11888E+0	-1.39535E+1	9.10001E-1	6.29167E-1
8.23085E+0	-1.40524E+1	9.00004E-1	6.40390E-1
8.38048E+0	-1.41674E+1	9.00012E-1	6.46734E-1
8.56404E+0	-1.47636E+1	9.00007E-1	6.34214E-1
1.67245E+1	-2.12595E+1	8.99913E-1	8.60191E-1
8.90020E+0	-1.49789E+1	8.99964E-1	6.49666E-1
