Efficiency(%)	JSC(mA/cm^2)	VOC(V)	FF				 
1.00997E+0	3.71462E-5	2.29298E-1	-2.33923E-1
9.99974E-1	3.73960E-5	2.30840E-1	-2.33165E-1
9.89975E-1	3.68374E-5	2.27391E-1	-2.27386E-1
9.79973E-1	3.62758E-5	2.23925E-1	-2.21657E-1
9.69974E-1	3.56864E-5	2.20286E-1	-2.15830E-1
9.59969E-1	3.51368E-5	2.16894E-1	-2.10314E-1
9.49970E-1	3.46027E-5	2.13597E-1	-2.04960E-1
9.39970E-1	3.40111E-5	2.09945E-1	-1.99335E-1
9.29963E-1	3.35088E-5	2.06844E-1	-1.94301E-1
9.19961E-1	3.29820E-5	2.03593E-1	-1.89189E-1
9.09961E-1	3.24394E-5	2.00243E-1	-1.84054E-1
8.99966E-1	3.19101E-5	1.96976E-1	-1.79062E-1
8.89965E-1	3.13837E-5	1.93727E-1	-1.74151E-1
8.79966E-1	3.08266E-5	1.90288E-1	-1.69138E-1
8.69929E-1	3.02936E-5	1.86998E-1	-1.64318E-1
8.59932E-1	2.97856E-5	1.83862E-1	-1.59706E-1
8.49930E-1	2.92620E-5	1.80630E-1	-1.55073E-1
8.39929E-1	2.87232E-5	1.77304E-1	-1.50427E-1
8.29931E-1	2.82051E-5	1.74106E-1	-1.45955E-1
8.19925E-1	2.76626E-5	1.70757E-1	-1.41422E-1
8.09925E-1	2.71826E-5	1.67794E-1	-1.37273E-1
7.99927E-1	2.66936E-5	1.64775E-1	-1.33140E-1
7.89926E-1	2.61991E-5	1.61723E-1	-1.29039E-1
7.79920E-1	2.57150E-5	1.58735E-1	-1.25051E-1
7.69919E-1	2.52322E-5	1.55754E-1	-1.21130E-1
7.59918E-1	2.47620E-5	1.52852E-1	-1.17328E-1
7.49920E-1	2.42989E-5	1.49993E-1	-1.13619E-1
7.39915E-1	2.38476E-5	1.47207E-1	-1.10021E-1
7.29919E-1	2.33843E-5	1.44348E-1	-1.06426E-1
7.19919E-1	2.29070E-5	1.41401E-1	-1.02826E-1
7.09920E-1	2.24308E-5	1.38462E-1	-9.92896E-2
6.99919E-1	2.19895E-5	1.35738E-1	-9.59650E-2
6.89921E-1	2.15777E-5	1.33196E-1	-9.28227E-2
6.79921E-1	2.11140E-5	1.30333E-1	-8.95115E-2
6.69912E-1	2.06814E-5	1.27663E-1	-8.63868E-2
6.59917E-1	2.02260E-5	1.24852E-1	-8.32241E-2
6.49920E-1	1.97582E-5	1.21964E-1	-8.00676E-2
6.39921E-1	1.93365E-5	1.19361E-1	-7.71532E-2
6.29913E-1	1.89095E-5	1.16725E-1	-7.42695E-2
6.19908E-1	1.84892E-5	1.14131E-1	-7.14653E-2
6.09911E-1	1.80668E-5	1.11523E-1	-6.87064E-2
5.99909E-1	1.76508E-5	1.08956E-1	-6.60237E-2
5.89911E-1	1.72435E-5	1.06441E-1	-6.34252E-2
5.79912E-1	1.68338E-5	1.03912E-1	-6.08687E-2
5.69914E-1	1.64272E-5	1.01402E-1	-5.83744E-2
5.59913E-1	1.60284E-5	9.89407E-2	-5.59578E-2
5.49915E-1	1.56464E-5	9.65827E-2	-5.36488E-2
5.39914E-1	1.52506E-5	9.41395E-2	-5.13406E-2
5.29914E-1	1.48605E-5	9.17315E-2	-4.91008E-2
5.19912E-1	1.44603E-5	8.92611E-2	-4.68767E-2
5.09917E-1	1.40794E-5	8.69099E-2	-4.47645E-2
4.99915E-1	1.37114E-5	8.46383E-2	-4.27393E-2
4.89911E-1	1.33445E-5	8.23735E-2	-4.07633E-2
4.79912E-1	1.29748E-5	8.00914E-2	-3.88251E-2
4.69914E-1	1.25904E-5	7.77185E-2	-3.68899E-2
4.59913E-1	1.22353E-5	7.55265E-2	-3.50865E-2
4.49908E-1	1.18896E-5	7.33926E-2	-3.33534E-2
4.39910E-1	1.15371E-5	7.12167E-2	-3.16454E-2
4.29910E-1	1.11931E-5	6.90932E-2	-3.00039E-2
4.19911E-1	1.08576E-5	6.70222E-2	-2.84276E-2
4.09916E-1	1.05030E-5	6.48333E-2	-2.68447E-2
3.99915E-1	1.01833E-5	6.28599E-2	-2.53925E-2
3.89910E-1	9.82406E-6	6.06423E-2	-2.38839E-2
3.79909E-1	9.49926E-6	5.86374E-2	-2.25019E-2
3.69908E-1	9.18840E-6	5.67185E-2	-2.11926E-2
3.59910E-1	8.86023E-6	5.46928E-2	-1.98833E-2
3.49910E-1	8.55153E-6	5.27872E-2	-1.86574E-2
3.39903E-1	8.23880E-6	5.08568E-2	-1.74610E-2
3.29904E-1	7.94620E-6	4.90506E-2	-1.63454E-2
3.19904E-1	7.62852E-6	4.70896E-2	-1.52163E-2
3.09903E-1	7.33252E-6	4.52625E-2	-1.41687E-2
2.99906E-1	7.04211E-6	4.34698E-2	-1.31685E-2
2.89901E-1	6.74185E-6	4.16164E-2	-1.21865E-2
2.79907E-1	6.46749E-6	3.99228E-2	-1.12875E-2
2.69908E-1	6.18948E-6	3.82067E-2	-1.04164E-2
2.59906E-1	5.91742E-6	3.65273E-2	-9.58956E-3
2.49909E-1	5.64439E-6	3.48419E-2	-8.79526E-3
2.39908E-1	5.35815E-6	3.30750E-2	-8.01511E-3
2.29905E-1	5.09752E-6	3.14662E-2	-7.30730E-3
2.19908E-1	4.84724E-6	2.99212E-2	-6.64638E-3
2.09902E-1	4.58499E-6	2.83024E-2	-6.00074E-3
1.99895E-1	4.33226E-6	2.67423E-2	-5.39966E-3
1.89898E-1	4.08929E-6	2.52425E-2	-4.84193E-3
1.79897E-1	3.83727E-6	2.36869E-2	-4.30424E-3
1.69899E-1	3.60008E-6	2.22227E-2	-3.81375E-3
1.59900E-1	3.36538E-6	2.07740E-2	-3.35531E-3
1.49904E-1	3.13128E-6	1.93289E-2	-2.92675E-3
1.39899E-1	2.90878E-6	1.79554E-2	-2.53732E-3
1.29903E-1	2.68633E-6	1.65823E-2	-2.17585E-3
1.19901E-1	2.46460E-6	1.52136E-2	-1.84255E-3
1.09903E-1	2.25377E-6	1.39122E-2	-1.54443E-3
9.99033E-2	2.04364E-6	1.26151E-2	-1.27302E-3
8.98955E-2	1.83675E-6	1.13380E-2	-1.02953E-3
7.98957E-2	1.63587E-6	1.00980E-2	-8.14933E-4
6.98986E-2	1.43744E-6	8.87309E-3	-6.26481E-4
5.98984E-2	1.24094E-6	7.66012E-3	-4.63464E-4
4.98939E-2	1.04765E-6	6.46698E-3	-3.25922E-4
3.98912E-2	8.54931E-7	5.27735E-3	-2.12646E-4
2.98901E-2	6.65022E-7	4.10507E-3	-1.23940E-4
1.98939E-2	4.79279E-7	2.95851E-3	-5.94509E-5
9.89199E-3	2.92264E-7	1.80410E-3	-1.80264E-5
-1.05619E-4	1.06493E-7	6.57364E-4	7.01315E-8
-9.92322E-3	-7.54584E-8	-4.65793E-4	-4.66885E-6
-1.99258E-2	-2.62349E-7	-1.61944E-3	-3.25945E-5
-2.99258E-2	-4.49406E-7	-2.77411E-3	-8.38561E-5
-3.99244E-2	-6.39290E-7	-3.94623E-3	-1.59142E-4
-4.99232E-2	-8.30732E-7	-5.12798E-3	-2.58591E-4
-5.99365E-2	-1.02389E-6	-6.32031E-3	-3.82644E-4
-6.99372E-2	-1.22059E-6	-7.53451E-3	-5.32265E-4
-7.99329E-2	-1.42094E-6	-8.77123E-3	-7.08192E-4
-8.99284E-2	-1.62187E-6	-1.00115E-2	-9.09416E-4
-9.99351E-2	-1.82704E-6	-1.12780E-2	-1.13846E-3
-1.09933E-1	-2.04005E-6	-1.25929E-2	-1.39836E-3
-1.19939E-1	-2.25011E-6	-1.38896E-2	-1.68273E-3
-1.29940E-1	-2.46985E-6	-1.52460E-2	-2.00107E-3
-1.39935E-1	-2.69517E-6	-1.66369E-2	-2.35159E-3
-1.49935E-1	-2.91608E-6	-1.80005E-2	-2.72617E-3
-1.59928E-1	-3.15330E-6	-1.94648E-2	-3.14441E-3
-1.69935E-1	-3.38842E-6	-2.09162E-2	-3.59029E-3
-1.79932E-1	-3.62290E-6	-2.23636E-2	-4.06457E-3
-1.89934E-1	-3.86574E-6	-2.38626E-2	-4.57810E-3
-1.99932E-1	-4.11395E-6	-2.53948E-2	-5.12851E-3
-2.09944E-1	-4.38251E-6	-2.70525E-2	-5.73689E-3
-2.19944E-1	-4.63895E-6	-2.86355E-2	-6.36182E-3
-2.29941E-1	-4.90463E-6	-3.02755E-2	-7.03190E-3
-2.39945E-1	-5.18796E-6	-3.20244E-2	-7.76172E-3
-2.49941E-1	-5.44620E-6	-3.36185E-2	-8.48752E-3
-2.59941E-1	-5.72166E-6	-3.53189E-2	-9.27356E-3
-2.69941E-1	-6.01112E-6	-3.71057E-2	-1.01175E-2
-2.79943E-1	-6.29108E-6	-3.88338E-2	-1.09811E-2
-2.89943E-1	-6.59232E-6	-4.06933E-2	-1.19179E-2
-2.99942E-1	-6.88643E-6	-4.25088E-2	-1.28790E-2
-3.09941E-1	-7.20094E-6	-4.44502E-2	-1.39161E-2
-3.19940E-1	-7.49919E-6	-4.62913E-2	-1.49600E-2
-3.29946E-1	-7.82776E-6	-4.83195E-2	-1.61039E-2
-3.39944E-1	-8.14074E-6	-5.02515E-2	-1.72552E-2
-3.49952E-1	-8.46499E-6	-5.22530E-2	-1.84708E-2
-3.59949E-1	-8.79203E-6	-5.42718E-2	-1.97324E-2
-3.69949E-1	-9.13687E-6	-5.64004E-2	-2.10760E-2
-3.79944E-1	-9.48081E-6	-5.85235E-2	-2.24603E-2
-3.89949E-1	-9.82821E-6	-6.06680E-2	-2.38964E-2
-3.99944E-1	-1.02035E-5	-6.29846E-2	-2.54447E-2
-4.09942E-1	-1.05642E-5	-6.52111E-2	-2.70028E-2
-4.19941E-1	-1.09426E-5	-6.75469E-2	-2.86522E-2
-4.29943E-1	-1.13106E-5	-6.98185E-2	-3.03212E-2
-4.39938E-1	-1.17228E-5	-7.23630E-2	-3.21568E-2
-4.49940E-1	-1.21352E-5	-7.49086E-2	-3.40448E-2
-4.59939E-1	-1.25580E-5	-7.75185E-2	-3.60139E-2
-4.69938E-1	-1.29999E-5	-8.02463E-2	-3.80917E-2
-4.79937E-1	-1.34907E-5	-8.32759E-2	-4.03709E-2
-4.89938E-1	-1.39985E-5	-8.64105E-2	-4.27634E-2
-4.99946E-1	-1.45247E-5	-8.96586E-2	-4.52773E-2
-5.09948E-1	-1.51138E-5	-9.32951E-2	-4.80562E-2
-5.19948E-1	-1.57706E-5	-9.73494E-2	-5.11279E-2
-5.29946E-1	-1.64924E-5	-1.01805E-1	-5.44961E-2
-5.39943E-1	-1.73041E-5	-1.06815E-1	-5.82568E-2
-5.49945E-1	-1.82184E-5	-1.12459E-1	-6.24711E-2
-5.59942E-1	-1.93019E-5	-1.19148E-1	-6.73896E-2
-5.69939E-1	-2.06165E-5	-1.27262E-1	-7.32644E-2
-5.79938E-1	-2.21859E-5	-1.36950E-1	-8.02248E-2
-5.89938E-1	-2.40799E-5	-1.48641E-1	-8.85749E-2
-5.99937E-1	-2.64409E-5	-1.63215E-1	-9.89081E-2
-6.09940E-1	-2.93709E-5	-1.81302E-1	-1.11700E-1
-6.19937E-1	-3.30362E-5	-2.03927E-1	-1.27699E-1
-6.29938E-1	-3.77040E-5	-2.32741E-1	-1.48093E-1
-6.39967E-1	-4.36588E-5	-2.69499E-1	-1.74212E-1
-6.49974E-1	-5.12268E-5	-3.16215E-1	-2.07607E-1
-6.59975E-1	-6.08456E-5	-3.75590E-1	-2.50384E-1
-6.69971E-1	-7.30587E-5	-4.50980E-1	-3.05195E-1
-6.79976E-1	-8.85331E-5	-5.46501E-1	-3.75361E-1
-6.89980E-1	-1.08119E-4	-6.67401E-1	-4.65145E-1
-6.99982E-1	-1.32572E-4	-8.18346E-1	-5.78613E-1
-7.09981E-1	-1.63002E-4	-1.00619E+0	-7.21588E-1
-7.19981E-1	-2.00454E-4	-1.23737E+0	-8.99882E-1
-7.29981E-1	-2.46078E-4	-1.51900E+0	-1.12004E+0
-7.39981E-1	-3.01003E-4	-1.85804E+0	-1.38880E+0
-7.49980E-1	-3.66315E-4	-2.26120E+0	-1.71299E+0
-7.59983E-1	-4.42993E-4	-2.73452E+0	-2.09918E+0
-7.69987E-1	-5.31842E-4	-3.28298E+0	-2.55338E+0
-7.79985E-1	-6.33380E-4	-3.90975E+0	-3.08035E+0
-7.89992E-1	-7.48108E-4	-4.61795E+0	-3.68499E+0
-7.99991E-1	-8.75960E-4	-5.40716E+0	-4.36937E+0
-8.09991E-1	-1.01723E-3	-6.27920E+0	-5.13747E+0
-8.19986E-1	-1.17113E-3	-7.22920E+0	-5.98772E+0
-8.29994E-1	-1.33744E-3	-8.25580E+0	-6.92148E+0
-8.39991E-1	-1.51554E-3	-9.35519E+0	-7.93765E+0
-8.49992E-1	-1.70490E-3	-1.05241E+1	-9.03574E+0
-8.59993E-1	-1.90482E-3	-1.17581E+1	-1.02141E+1
-8.69992E-1	-2.11473E-3	-1.30539E+1	-1.14715E+1
-8.79991E-1	-2.33374E-3	-1.44058E+1	-1.28050E+1
-8.89994E-1	-2.56129E-3	-1.58104E+1	-1.42133E+1
-8.99996E-1	-2.79708E-3	-1.72659E+1	-1.56962E+1
-9.09997E-1	-3.03999E-3	-1.87654E+1	-1.72489E+1
-9.19995E-1	-3.28966E-3	-2.03065E+1	-1.88706E+1
-9.29998E-1	-3.54574E-3	-2.18873E+1	-2.05607E+1
-9.40002E-1	-3.80776E-3	-2.35047E+1	-2.23176E+1
-9.50002E-1	-4.07506E-3	-2.51547E+1	-2.41384E+1
-9.59998E-1	-4.34749E-3	-2.68364E+1	-2.60231E+1
-9.70001E-1	-4.62452E-3	-2.85464E+1	-2.79698E+1
-9.79997E-1	-4.90582E-3	-3.02828E+1	-2.99769E+1
-9.89997E-1	-5.19133E-3	-3.20452E+1	-3.20451E+1
-9.99995E-1	-5.48054E-3	-3.38305E+1	-3.41720E+1
-1.01000E+0	-5.77333E-3	-3.56378E+1	-3.63578E+1
7.01315E-8	6.57364E-4	-9.92322E-3	1.06436E-2
6.88829E-6	1.69123E-3	-1.99180E-2	2.02441E-1
8.24014E-6	1.71322E-3	-1.99273E-2	2.38951E-1
4.46133E-8	3.17210E-4	-1.39236E-4	1.00000E+0
9.71431E-8	1.02379E-3	-9.92131E-3	9.46820E-3
5.91989E-6	1.61775E-3	-1.99165E-2	1.81897E-1
