Efficiency(%)	JSC(mA/cm^2)	VOC(V)	FF				 
1.01003E+0	4.57912E-6	2.82662E-2	-2.85497E-2
1.00003E+0	4.50107E-6	2.77844E-2	-2.77852E-2
9.90032E-1	4.42528E-6	2.73165E-2	-2.70443E-2
9.80028E-1	4.35606E-6	2.68893E-2	-2.63522E-2
9.70026E-1	4.27650E-6	2.63981E-2	-2.56069E-2
9.60027E-1	4.20508E-6	2.59573E-2	-2.49197E-2
9.50029E-1	4.13641E-6	2.55334E-2	-2.42575E-2
9.40031E-1	4.06278E-6	2.50789E-2	-2.35749E-2
9.30019E-1	3.99421E-6	2.46556E-2	-2.29302E-2
9.20023E-1	3.92551E-6	2.42315E-2	-2.22936E-2
9.10025E-1	3.85492E-6	2.37958E-2	-2.16548E-2
9.00028E-1	3.78922E-6	2.33902E-2	-2.10519E-2
8.90025E-1	3.71899E-6	2.29567E-2	-2.04321E-2
8.80029E-1	3.65058E-6	2.25344E-2	-1.98310E-2
8.69992E-1	3.58571E-6	2.21340E-2	-1.92564E-2
8.59996E-1	3.52301E-6	2.17470E-2	-1.87023E-2
8.49997E-1	3.45716E-6	2.13405E-2	-1.81394E-2
8.39999E-1	3.39515E-6	2.09577E-2	-1.76045E-2
8.29997E-1	3.33122E-6	2.05631E-2	-1.70673E-2
8.19987E-1	3.26932E-6	2.01810E-2	-1.65481E-2
8.09991E-1	3.21196E-6	1.98269E-2	-1.60596E-2
7.99997E-1	3.15079E-6	1.94493E-2	-1.55594E-2
7.89988E-1	3.08747E-6	1.90585E-2	-1.50560E-2
7.79983E-1	3.02899E-6	1.86975E-2	-1.45837E-2
7.69984E-1	2.97257E-6	1.83492E-2	-1.41286E-2
7.59984E-1	2.91440E-6	1.79901E-2	-1.36722E-2
7.49991E-1	2.85779E-6	1.76407E-2	-1.32304E-2
7.39985E-1	2.80548E-6	1.73178E-2	-1.28149E-2
7.29985E-1	2.75434E-6	1.70021E-2	-1.24113E-2
7.19991E-1	2.70137E-6	1.66751E-2	-1.20059E-2
7.09993E-1	2.65055E-6	1.63614E-2	-1.16165E-2
6.99991E-1	2.59705E-6	1.60312E-2	-1.12217E-2
6.89997E-1	2.54224E-6	1.56928E-2	-1.08280E-2
6.79994E-1	2.49411E-6	1.53957E-2	-1.04690E-2
6.69990E-1	2.43860E-6	1.50531E-2	-1.00854E-2
6.59987E-1	2.38667E-6	1.47325E-2	-9.72328E-3
6.49990E-1	2.33853E-6	1.44354E-2	-9.38285E-3
6.39987E-1	2.29224E-6	1.41496E-2	-9.05558E-3
6.29983E-1	2.24318E-6	1.38468E-2	-8.72324E-3
6.19982E-1	2.19580E-6	1.35543E-2	-8.40344E-3
6.09986E-1	2.14636E-6	1.32491E-2	-8.08179E-3
5.99982E-1	2.09931E-6	1.29587E-2	-7.77499E-3
5.89986E-1	2.05532E-6	1.26872E-2	-7.48525E-3
5.79983E-1	2.01066E-6	1.24115E-2	-7.19845E-3
5.69987E-1	1.96497E-6	1.21294E-2	-6.91363E-3
5.59988E-1	1.92339E-6	1.18728E-2	-6.64861E-3
5.49986E-1	1.87954E-6	1.16021E-2	-6.38099E-3
5.39990E-1	1.83610E-6	1.13340E-2	-6.12022E-3
5.29986E-1	1.79240E-6	1.10642E-2	-5.86387E-3
5.19985E-1	1.75071E-6	1.08069E-2	-5.61940E-3
5.09984E-1	1.70593E-6	1.05304E-2	-5.37035E-3
4.99986E-1	1.66579E-6	1.02827E-2	-5.14118E-3
4.89980E-1	1.62556E-6	1.00343E-2	-4.91662E-3
4.79981E-1	1.58558E-6	9.78753E-3	-4.69783E-3
4.69984E-1	1.54295E-6	9.52438E-3	-4.47631E-3
4.59985E-1	1.50555E-6	9.29352E-3	-4.27488E-3
4.49978E-1	1.46707E-6	9.05599E-3	-4.07500E-3
4.39982E-1	1.42860E-6	8.81852E-3	-3.87999E-3
4.29982E-1	1.39120E-6	8.58765E-3	-3.69254E-3
4.19982E-1	1.35255E-6	8.34907E-3	-3.50646E-3
4.09988E-1	1.31522E-6	8.11864E-3	-3.32855E-3
3.99984E-1	1.27684E-6	7.88173E-3	-3.15257E-3
3.89986E-1	1.23941E-6	7.65068E-3	-2.98366E-3
3.79982E-1	1.20426E-6	7.43370E-3	-2.82467E-3
3.69983E-1	1.17091E-6	7.22784E-3	-2.67418E-3
3.59982E-1	1.13223E-6	6.98907E-3	-2.51594E-3
3.49984E-1	1.09661E-6	6.76920E-3	-2.36911E-3
3.39973E-1	1.06284E-6	6.56074E-3	-2.23047E-3
3.29984E-1	1.02900E-6	6.35185E-3	-2.09601E-3
3.19974E-1	9.93652E-7	6.13365E-3	-1.96261E-3
3.09975E-1	9.61259E-7	5.93370E-3	-1.83930E-3
2.99971E-1	9.28838E-7	5.73357E-3	-1.71990E-3
2.89973E-1	8.96407E-7	5.53338E-3	-1.60453E-3
2.79976E-1	8.62750E-7	5.32562E-3	-1.49105E-3
2.69974E-1	8.31257E-7	5.13122E-3	-1.38529E-3
2.59976E-1	7.99253E-7	4.93366E-3	-1.28263E-3
2.49977E-1	7.67697E-7	4.73887E-3	-1.18461E-3
2.39982E-1	7.36634E-7	4.54712E-3	-1.09123E-3
2.29977E-1	7.06198E-7	4.35925E-3	-1.00253E-3
2.19977E-1	6.77267E-7	4.18066E-3	-9.19649E-4
2.09979E-1	6.47157E-7	3.99480E-3	-8.38823E-4
1.99976E-1	6.15684E-7	3.80052E-3	-7.60012E-4
1.89976E-1	5.87602E-7	3.62717E-3	-6.89076E-4
1.79976E-1	5.57788E-7	3.44314E-3	-6.19682E-4
1.69979E-1	5.29941E-7	3.27124E-3	-5.56042E-4
1.59974E-1	5.03243E-7	3.10644E-3	-4.96949E-4
1.49975E-1	4.73806E-7	2.92473E-3	-4.38636E-4
1.39974E-1	4.45989E-7	2.75302E-3	-3.85351E-4
1.29973E-1	4.18190E-7	2.58142E-3	-3.35515E-4
1.19982E-1	3.91404E-7	2.41607E-3	-2.89885E-4
1.09983E-1	3.64179E-7	2.24802E-3	-2.47244E-4
9.99815E-2	3.37311E-7	2.08217E-3	-2.08178E-4
8.99773E-2	3.10919E-7	1.91925E-3	-1.72689E-4
7.99832E-2	2.84226E-7	1.75448E-3	-1.40329E-4
6.99821E-2	2.58030E-7	1.59278E-3	-1.11466E-4
5.99816E-2	2.31943E-7	1.43175E-3	-8.58785E-5
4.99711E-2	2.05713E-7	1.26983E-3	-6.34550E-5
3.99761E-2	1.78352E-7	1.10094E-3	-4.40112E-5
2.99757E-2	1.55621E-7	9.60623E-4	-2.87954E-5
1.99800E-2	1.28987E-7	7.96216E-4	-1.59084E-5
9.97376E-3	1.02977E-7	6.35660E-4	-6.33993E-6
-3.48091E-5	7.68050E-8	4.74105E-4	1.65032E-8
-9.92179E-3	5.21088E-8	3.21659E-4	3.19144E-6
-1.99184E-2	2.57053E-8	1.58675E-4	3.16055E-6
-2.99177E-2	-1.55592E-9	-9.60444E-6	-2.87343E-7
-3.99199E-2	-2.88309E-8	-1.77969E-4	-7.10449E-6
-4.99203E-2	-5.53863E-8	-3.41891E-4	-1.70673E-5
-5.99253E-2	-8.30909E-8	-5.12907E-4	-3.07361E-5
-6.99215E-2	-1.10744E-7	-6.83605E-4	-4.77987E-5
-7.99215E-2	-1.40772E-7	-8.68963E-4	-6.94488E-5
-8.99236E-2	-1.69247E-7	-1.04473E-3	-9.39463E-5
-9.99246E-2	-1.98392E-7	-1.22464E-3	-1.22372E-4
-1.09926E-1	-2.28732E-7	-1.41193E-3	-1.55207E-4
-1.19926E-1	-2.59738E-7	-1.60332E-3	-1.92280E-4
-1.29927E-1	-2.90887E-7	-1.79560E-3	-2.33297E-4
-1.39925E-1	-3.22813E-7	-1.99267E-3	-2.78825E-4
-1.49923E-1	-3.54689E-7	-2.18944E-3	-3.28247E-4
-1.59923E-1	-3.88550E-7	-2.39846E-3	-3.83568E-4
-1.69932E-1	-4.23769E-7	-2.61586E-3	-4.44518E-4
-1.79926E-1	-4.59377E-7	-2.83566E-3	-5.10209E-4
-1.89925E-1	-4.95205E-7	-3.05682E-3	-5.80567E-4
-1.99926E-1	-5.31559E-7	-3.28123E-3	-6.56003E-4
-2.09934E-1	-5.69068E-7	-3.51277E-3	-7.37449E-4
-2.19934E-1	-6.07862E-7	-3.75223E-3	-8.25244E-4
-2.29926E-1	-6.49166E-7	-4.00720E-3	-9.21359E-4
-2.39937E-1	-6.89209E-7	-4.25438E-3	-1.02078E-3
-2.49930E-1	-7.31685E-7	-4.51657E-3	-1.12883E-3
-2.59930E-1	-7.74840E-7	-4.78296E-3	-1.24324E-3
-2.69930E-1	-8.18939E-7	-5.05518E-3	-1.36454E-3
-2.79928E-1	-8.62974E-7	-5.32700E-3	-1.49118E-3
-2.89928E-1	-9.09392E-7	-5.61353E-3	-1.62752E-3
-2.99925E-1	-9.57828E-7	-5.91252E-3	-1.77331E-3
-3.09928E-1	-1.00704E-6	-6.21630E-3	-1.92660E-3
-3.19930E-1	-1.05797E-6	-6.53068E-3	-2.08936E-3
-3.29925E-1	-1.10787E-6	-6.83870E-3	-2.25626E-3
-3.39926E-1	-1.16144E-6	-7.16938E-3	-2.43706E-3
-3.49930E-1	-1.21653E-6	-7.50944E-3	-2.62778E-3
-3.59927E-1	-1.27500E-6	-7.87037E-3	-2.83276E-3
-3.69932E-1	-1.33275E-6	-8.22685E-3	-3.04338E-3
-3.79925E-1	-1.39194E-6	-8.59222E-3	-3.26440E-3
-3.89929E-1	-1.45525E-6	-8.98302E-3	-3.50274E-3
-3.99935E-1	-1.52072E-6	-9.38716E-3	-3.75425E-3
-4.09932E-1	-1.58869E-6	-9.80673E-3	-4.02009E-3
-4.19935E-1	-1.65865E-6	-1.02386E-2	-4.29954E-3
-4.29934E-1	-1.73283E-6	-1.06965E-2	-4.59878E-3
-4.39934E-1	-1.80760E-6	-1.11580E-2	-4.90879E-3
-4.49927E-1	-1.88655E-6	-1.16454E-2	-5.23957E-3
-4.59933E-1	-1.97195E-6	-1.21725E-2	-5.59855E-3
-4.69929E-1	-2.06224E-6	-1.27299E-2	-5.98214E-3
-4.79934E-1	-2.15996E-6	-1.33331E-2	-6.39900E-3
-4.89928E-1	-2.26238E-6	-1.39653E-2	-6.84200E-3
-4.99936E-1	-2.37498E-6	-1.46604E-2	-7.32925E-3
-5.09933E-1	-2.49767E-6	-1.54177E-2	-7.86200E-3
-5.19936E-1	-2.63287E-6	-1.62523E-2	-8.45015E-3
-5.29936E-1	-2.78041E-6	-1.71630E-2	-9.09530E-3
-5.39938E-1	-2.94996E-6	-1.82096E-2	-9.83207E-3
-5.49939E-1	-3.14228E-6	-1.93968E-2	-1.06671E-2
-5.59935E-1	-3.36492E-6	-2.07711E-2	-1.16305E-2
-5.69937E-1	-3.62580E-6	-2.23815E-2	-1.27560E-2
-5.79933E-1	-3.93845E-6	-2.43114E-2	-1.40990E-2
-5.89935E-1	-4.31793E-6	-2.66539E-2	-1.57241E-2
-5.99936E-1	-4.77985E-6	-2.95052E-2	-1.77013E-2
-6.09934E-1	-5.36059E-6	-3.30901E-2	-2.01828E-2
-6.19928E-1	-6.08283E-6	-3.75483E-2	-2.32773E-2
-6.29932E-1	-7.01649E-6	-4.33117E-2	-2.72834E-2
-6.39971E-1	-8.21553E-6	-5.07131E-2	-3.24549E-2
-6.49975E-1	-9.77353E-6	-6.03304E-2	-3.92133E-2
-6.59970E-1	-1.18151E-5	-7.29327E-2	-4.81334E-2
-6.69969E-1	-1.45635E-5	-8.98981E-2	-6.02290E-2
-6.79967E-1	-1.81745E-5	-1.12188E-1	-7.62843E-2
-6.89972E-1	-2.30257E-5	-1.42134E-1	-9.80684E-2
-6.99963E-1	-2.95649E-5	-1.82499E-1	-1.27743E-1
-7.09997E-1	1.34444E-3	8.29901E+0	5.89227E+0
-7.19974E-1	-5.01562E-5	-3.09606E-1	-2.22908E-1
-7.29965E-1	-6.60689E-5	-4.07833E-1	-2.97704E-1
-7.39965E-1	-8.74051E-5	-5.39538E-1	-3.99239E-1
-7.49970E-1	-1.15826E-4	-7.14975E-1	-5.36210E-1
-7.59973E-1	-1.53309E-4	-9.46352E-1	-7.19202E-1
-7.69969E-1	-2.02084E-4	-1.24743E+0	-9.60484E-1
-7.79967E-1	-2.64516E-4	-1.63281E+0	-1.27354E+0
-7.89976E-1	-3.43053E-4	-2.11761E+0	-1.67286E+0
-7.99975E-1	-4.39455E-4	-2.71269E+0	-2.17008E+0
-8.09977E-1	-5.55240E-4	-3.42741E+0	-2.77612E+0
-8.19979E-1	-6.91105E-4	-4.26608E+0	-3.49810E+0
-8.29986E-1	-8.47182E-4	-5.22952E+0	-4.34043E+0
-8.39981E-1	-1.02278E-3	-6.31346E+0	-5.30318E+0
-8.49983E-1	-1.21671E-3	-7.51056E+0	-6.38384E+0
-8.59983E-1	-1.42753E-3	-8.81191E+0	-7.57810E+0
-8.69978E-1	-1.65406E-3	-1.02102E+1	-8.88269E+0
-8.79979E-1	-1.89466E-3	-1.16954E+1	-1.02917E+1
-8.89976E-1	-2.14784E-3	-1.32583E+1	-1.17995E+1
-8.99978E-1	-2.41245E-3	-1.48917E+1	-1.34022E+1
-9.09976E-1	-2.68719E-3	-1.65876E+1	-1.50943E+1
-9.19977E-1	-2.97117E-3	-1.83406E+1	-1.68729E+1
-9.29976E-1	-3.26313E-3	-2.01428E+1	-1.87323E+1
-9.39984E-1	-3.56264E-3	-2.19916E+1	-2.06718E+1
-9.49981E-1	-3.86861E-3	-2.38803E+1	-2.26858E+1
-9.59983E-1	-4.18066E-3	-2.58065E+1	-2.47738E+1
-9.69988E-1	-4.49835E-3	-2.77676E+1	-2.69342E+1
-9.79984E-1	-4.82060E-3	-2.97568E+1	-2.91612E+1
-9.89986E-1	-5.14724E-3	-3.17731E+1	-3.14549E+1
-9.99982E-1	-5.47810E-3	-3.38154E+1	-3.38148E+1
-1.00998E+0	-5.81263E-3	-3.58804E+1	-3.62385E+1
5.89227E+0	4.74105E-4	-2.99177E-2	4.15413E+5
2.58937E-5	1.26695E-3	-7.99212E-2	2.55725E-1
3.65867E-5	1.22057E-3	-1.09918E-1	2.72704E-1
2.24768E-9	1.84853E-4	-9.91154E-3	1.22678E-3
8.69690E-6	7.82346E-4	-3.99084E-2	2.78549E-1
3.16489E-5	1.34082E-3	-1.09920E-1	2.14739E-1
