Efficiency(%)	JSC(mA/cm^2)	VOC(V)	FF				 
1.01001E+0	5.30554E-6	3.27502E-2	-3.30781E-2
1.00001E+0	5.25533E-6	3.24403E-2	-3.24406E-2
9.90007E-1	5.15836E-6	3.18417E-2	-3.15235E-2
9.80006E-1	5.05973E-6	3.12329E-2	-3.06084E-2
9.70010E-1	4.96708E-6	3.06610E-2	-2.97415E-2
9.60007E-1	4.87008E-6	3.00622E-2	-2.88599E-2
9.50011E-1	4.77945E-6	2.95028E-2	-2.80280E-2
9.40012E-1	4.68951E-6	2.89476E-2	-2.72111E-2
9.30003E-1	4.59691E-6	2.83760E-2	-2.63898E-2
9.20008E-1	4.50646E-6	2.78177E-2	-2.55925E-2
9.10011E-1	4.41556E-6	2.72565E-2	-2.48038E-2
9.00011E-1	4.32638E-6	2.67060E-2	-2.40357E-2
8.90008E-1	4.23932E-6	2.61686E-2	-2.32903E-2
8.80008E-1	4.15637E-6	2.56566E-2	-2.25780E-2
8.69976E-1	4.07435E-6	2.51503E-2	-2.18802E-2
8.59976E-1	3.98754E-6	2.46144E-2	-2.11678E-2
8.49972E-1	3.90706E-6	2.41177E-2	-2.04993E-2
8.39974E-1	3.82204E-6	2.35928E-2	-1.98174E-2
8.29974E-1	3.74628E-6	2.31252E-2	-1.91933E-2
8.19971E-1	3.66987E-6	2.26535E-2	-1.85752E-2
8.09972E-1	3.58686E-6	2.21411E-2	-1.79337E-2
7.99969E-1	3.50581E-6	2.16408E-2	-1.73120E-2
7.89971E-1	3.43437E-6	2.11998E-2	-1.67472E-2
7.79961E-1	3.36105E-6	2.07472E-2	-1.61820E-2
7.69965E-1	3.28661E-6	2.02877E-2	-1.56208E-2
7.59966E-1	3.21011E-6	1.98155E-2	-1.50591E-2
7.49965E-1	3.13797E-6	1.93702E-2	-1.45270E-2
7.39964E-1	3.06446E-6	1.89164E-2	-1.39975E-2
7.29965E-1	2.99600E-6	1.84938E-2	-1.34998E-2
7.19967E-1	2.93041E-6	1.80890E-2	-1.30234E-2
7.09965E-1	2.86189E-6	1.76660E-2	-1.25422E-2
6.99966E-1	2.79540E-6	1.72556E-2	-1.20783E-2
6.89968E-1	2.73072E-6	1.68563E-2	-1.16303E-2
6.79966E-1	2.66665E-6	1.64608E-2	-1.11928E-2
6.69962E-1	2.59975E-6	1.60478E-2	-1.07514E-2
6.59965E-1	2.53578E-6	1.56530E-2	-1.03304E-2
6.49970E-1	2.47359E-6	1.52691E-2	-9.92444E-3
6.39967E-1	2.41309E-6	1.48956E-2	-9.53270E-3
6.29961E-1	2.35336E-6	1.45269E-2	-9.15139E-3
6.19962E-1	2.29316E-6	1.41553E-2	-8.77575E-3
6.09963E-1	2.23302E-6	1.37841E-2	-8.40778E-3
5.99962E-1	2.17287E-6	1.34128E-2	-8.04716E-3
5.89962E-1	2.11892E-6	1.30798E-2	-7.71656E-3
5.79962E-1	2.06403E-6	1.27409E-2	-7.38925E-3
5.69966E-1	2.00983E-6	1.24064E-2	-7.07120E-3
5.59964E-1	1.95731E-6	1.20822E-2	-6.76557E-3
5.49965E-1	1.90070E-6	1.17327E-2	-6.45258E-3
5.39962E-1	1.84764E-6	1.14052E-2	-6.15837E-3
5.29963E-1	1.79363E-6	1.10718E-2	-5.86764E-3
5.19957E-1	1.74305E-6	1.07596E-2	-5.59451E-3
5.09960E-1	1.69338E-6	1.04530E-2	-5.33059E-3
4.99963E-1	1.64675E-6	1.01651E-2	-5.08219E-3
4.89958E-1	1.59828E-6	9.86593E-3	-4.83389E-3
4.79960E-1	1.55181E-6	9.57907E-3	-4.59757E-3
4.69963E-1	1.50284E-6	9.27679E-3	-4.35975E-3
4.59961E-1	1.45620E-6	8.98889E-3	-4.13454E-3
4.49958E-1	1.40966E-6	8.70160E-3	-3.91536E-3
4.39960E-1	1.36405E-6	8.42006E-3	-3.70449E-3
4.29961E-1	1.32323E-6	8.16809E-3	-3.51196E-3
4.19956E-1	1.27898E-6	7.89494E-3	-3.31553E-3
4.09957E-1	1.23648E-6	7.63259E-3	-3.12903E-3
3.99957E-1	1.19293E-6	7.36377E-3	-2.94519E-3
3.89958E-1	1.15194E-6	7.11074E-3	-2.77289E-3
3.79955E-1	1.11116E-6	6.85901E-3	-2.60612E-3
3.69957E-1	1.07059E-6	6.60858E-3	-2.44489E-3
3.59957E-1	1.03032E-6	6.36000E-3	-2.28933E-3
3.49953E-1	9.93751E-7	6.13427E-3	-2.14670E-3
3.39946E-1	9.54195E-7	5.89009E-3	-2.00231E-3
3.29950E-1	9.15226E-7	5.64954E-3	-1.86407E-3
3.19951E-1	8.80834E-7	5.43725E-3	-1.73965E-3
3.09949E-1	8.45817E-7	5.22109E-3	-1.61827E-3
2.99950E-1	8.10312E-7	5.00193E-3	-1.50033E-3
2.89947E-1	7.75995E-7	4.79009E-3	-1.38887E-3
2.79951E-1	7.40631E-7	4.57180E-3	-1.27988E-3
2.69950E-1	7.08607E-7	4.37412E-3	-1.18079E-3
2.59953E-1	6.77312E-7	4.18094E-3	-1.08685E-3
2.49957E-1	6.44510E-7	3.97846E-3	-9.94443E-4
2.39955E-1	6.12037E-7	3.77801E-3	-9.06551E-4
2.29952E-1	5.81297E-7	3.58825E-3	-8.25126E-4
2.19953E-1	5.52180E-7	3.40852E-3	-7.49714E-4
2.09949E-1	5.22245E-7	3.22373E-3	-6.76820E-4
1.99944E-1	4.93418E-7	3.04579E-3	-6.08987E-4
1.89945E-1	4.64418E-7	2.86678E-3	-5.44530E-4
1.79948E-1	4.37773E-7	2.70230E-3	-4.86274E-4
1.69953E-1	4.10553E-7	2.53428E-3	-4.30708E-4
1.59946E-1	3.83592E-7	2.36785E-3	-3.78728E-4
1.49948E-1	3.57323E-7	2.20570E-3	-3.30740E-4
1.39951E-1	3.31425E-7	2.04583E-3	-2.86316E-4
1.29950E-1	3.06339E-7	1.89098E-3	-2.45733E-4
1.19954E-1	2.81217E-7	1.73591E-3	-2.08229E-4
1.09957E-1	2.57185E-7	1.58756E-3	-1.74564E-4
9.99527E-2	2.33387E-7	1.44066E-3	-1.43998E-4
8.99510E-2	2.10299E-7	1.29814E-3	-1.16769E-4
7.99532E-2	1.87152E-7	1.15526E-3	-9.23667E-5
6.99556E-2	1.69620E-7	1.04704E-3	-7.32461E-5
5.99620E-2	1.42972E-7	8.82543E-4	-5.29191E-5
4.99535E-2	1.20506E-7	7.43864E-4	-3.71586E-5
3.99427E-2	9.93173E-8	6.13070E-4	-2.44877E-5
2.99449E-2	7.85441E-8	4.84840E-4	-1.45185E-5
1.99473E-2	5.74282E-8	3.54495E-4	-7.07122E-6
9.94945E-3	3.63387E-8	2.24313E-4	-2.23179E-6
-4.86374E-5	1.53270E-8	9.46111E-5	4.60164E-9
-9.91321E-3	-5.80636E-9	-3.58417E-5	-3.55307E-7
-1.99220E-2	-2.66423E-8	-1.64459E-4	-3.27635E-6
-2.99199E-2	-4.71205E-8	-2.90867E-4	-8.70272E-6
-3.99194E-2	-6.83482E-8	-4.21902E-4	-1.68421E-5
-4.99208E-2	-8.96906E-8	-5.53646E-4	-2.76384E-5
-5.99256E-2	-1.12197E-7	-6.92574E-4	-4.15029E-5
-6.99253E-2	-1.34366E-7	-8.29420E-4	-5.79974E-5
-7.99239E-2	-1.56465E-7	-9.65833E-4	-7.71932E-5
-8.99231E-2	-1.78027E-7	-1.09893E-3	-9.88194E-5
-9.99303E-2	-2.01849E-7	-1.24598E-3	-1.24511E-4
-1.09933E-1	-2.25037E-7	-1.38912E-3	-1.52710E-4
-1.19932E-1	-2.49267E-7	-1.53869E-3	-1.84538E-4
-1.29932E-1	-2.72381E-7	-1.68136E-3	-2.18463E-4
-1.39931E-1	-2.96800E-7	-1.83210E-3	-2.56367E-4
-1.49929E-1	-3.21692E-7	-1.98575E-3	-2.97722E-4
-1.59931E-1	-3.46707E-7	-2.14017E-3	-3.42279E-4
-1.69935E-1	-3.72419E-7	-2.29888E-3	-3.90661E-4
-1.79928E-1	-3.99766E-7	-2.46769E-3	-4.44007E-4
-1.89929E-1	-4.25934E-7	-2.62922E-3	-4.99366E-4
-1.99925E-1	-4.54634E-7	-2.80638E-3	-5.61066E-4
-2.09934E-1	-4.82049E-7	-2.97561E-3	-6.24682E-4
-2.19931E-1	-5.10121E-7	-3.14890E-3	-6.92540E-4
-2.29932E-1	-5.38622E-7	-3.32483E-3	-7.64484E-4
-2.39939E-1	-5.67189E-7	-3.50117E-3	-8.40066E-4
-2.49932E-1	-5.96661E-7	-3.68309E-3	-9.20523E-4
-2.59933E-1	-6.27800E-7	-3.87531E-3	-1.00732E-3
-2.69932E-1	-6.59429E-7	-4.07055E-3	-1.09877E-3
-2.79928E-1	-6.89942E-7	-4.25890E-3	-1.19219E-3
-2.89930E-1	-7.24035E-7	-4.46935E-3	-1.29580E-3
-2.99928E-1	-7.57763E-7	-4.67755E-3	-1.40293E-3
-3.09927E-1	-7.91172E-7	-4.88378E-3	-1.51361E-3
-3.19932E-1	-8.27903E-7	-5.11051E-3	-1.63502E-3
-3.29934E-1	-8.62879E-7	-5.32641E-3	-1.75736E-3
-3.39934E-1	-8.98016E-7	-5.54331E-3	-1.88436E-3
-3.49943E-1	-9.35620E-7	-5.77543E-3	-2.02107E-3
-3.59939E-1	-9.72255E-7	-6.00157E-3	-2.16020E-3
-3.69942E-1	-1.01025E-6	-6.23611E-3	-2.30700E-3
-3.79940E-1	-1.05029E-6	-6.48327E-3	-2.46325E-3
-3.89944E-1	-1.08935E-6	-6.72438E-3	-2.62213E-3
-3.99944E-1	-1.12908E-6	-6.96963E-3	-2.78746E-3
-4.09945E-1	-1.17260E-6	-7.23827E-3	-2.96729E-3
-4.19941E-1	-1.21603E-6	-7.50636E-3	-3.15223E-3
-4.29937E-1	-1.26045E-6	-7.78056E-3	-3.34515E-3
-4.39934E-1	-1.30066E-6	-8.02877E-3	-3.53213E-3
-4.49936E-1	-1.34892E-6	-8.32667E-3	-3.74647E-3
-4.59936E-1	-1.39356E-6	-8.60222E-3	-3.95647E-3
-4.69937E-1	-1.43922E-6	-8.88407E-3	-4.17496E-3
-4.79936E-1	-1.48676E-6	-9.17753E-3	-4.40463E-3
-4.89936E-1	-1.53485E-6	-9.47438E-3	-4.64184E-3
-4.99946E-1	-1.58466E-6	-9.78185E-3	-4.89040E-3
-5.09946E-1	-1.63885E-6	-1.01164E-2	-5.15880E-3
-5.19948E-1	-1.69126E-6	-1.04399E-2	-5.42819E-3
-5.29948E-1	-1.74959E-6	-1.07999E-2	-5.72341E-3
-5.39953E-1	-1.80586E-6	-1.11473E-2	-6.01901E-3
-5.49954E-1	-1.86104E-6	-1.14879E-2	-6.31782E-3
-5.59951E-1	-1.92165E-6	-1.18620E-2	-6.64216E-3
-5.69952E-1	-1.98526E-6	-1.22547E-2	-6.98459E-3
-5.79950E-1	-2.05343E-6	-1.26755E-2	-7.35115E-3
-5.89946E-1	-2.11761E-6	-1.30717E-2	-7.71158E-3
-5.99946E-1	-2.18736E-6	-1.35022E-2	-8.10060E-3
-6.09947E-1	-2.26462E-6	-1.39791E-2	-8.52653E-3
-6.19945E-1	-2.34066E-6	-1.44485E-2	-8.95729E-3
-6.29942E-1	-2.42456E-6	-1.49664E-2	-9.42798E-3
-6.39977E-1	-2.50902E-6	-1.54878E-2	-9.91182E-3
-6.49982E-1	-2.60001E-6	-1.60494E-2	-1.04318E-2
-6.59981E-1	-2.68994E-6	-1.66046E-2	-1.09587E-2
-6.69980E-1	-2.78523E-6	-1.71928E-2	-1.15188E-2
-6.79982E-1	-2.88776E-6	-1.78257E-2	-1.21211E-2
-6.89982E-1	-2.99612E-6	-1.84946E-2	-1.27609E-2
-6.99981E-1	-3.10395E-6	-1.91602E-2	-1.34118E-2
-7.09984E-1	-3.21545E-6	-1.98485E-2	-1.40921E-2
-7.19984E-1	-3.33681E-6	-2.05976E-2	-1.48299E-2
-7.29982E-1	-3.46140E-6	-2.13667E-2	-1.55973E-2
-7.39983E-1	-3.59491E-6	-2.21908E-2	-1.64208E-2
-7.49983E-1	-3.73763E-6	-2.30718E-2	-1.73035E-2
-7.59981E-1	-3.88200E-6	-2.39630E-2	-1.82114E-2
-7.69984E-1	-4.03714E-6	-2.49206E-2	-1.91885E-2
-7.79980E-1	-4.20264E-6	-2.59422E-2	-2.02344E-2
-7.89988E-1	-4.37925E-6	-2.70324E-2	-2.13553E-2
-7.99984E-1	-4.55780E-6	-2.81346E-2	-2.25072E-2
-8.09986E-1	-4.74850E-6	-2.93117E-2	-2.37421E-2
-8.19984E-1	-4.94310E-6	-3.05130E-2	-2.50201E-2
-8.29991E-1	-5.14946E-6	-3.17868E-2	-2.63827E-2
-8.39989E-1	-5.37167E-6	-3.31585E-2	-2.78527E-2
-8.49991E-1	-5.60607E-6	-3.46054E-2	-2.94143E-2
-8.59994E-1	-5.84397E-6	-3.60739E-2	-3.10233E-2
-8.69990E-1	-6.09777E-6	-3.76406E-2	-3.27469E-2
-8.79991E-1	-6.36036E-6	-3.92615E-2	-3.45498E-2
-8.89989E-1	-6.64065E-6	-4.09917E-2	-3.64821E-2
-8.99992E-1	-6.93378E-6	-4.28011E-2	-3.85207E-2
-9.09992E-1	-7.24403E-6	-4.47162E-2	-4.06914E-2
-9.19989E-1	-7.56495E-6	-4.66972E-2	-4.29609E-2
-9.29988E-1	-7.89755E-6	-4.87503E-2	-4.53372E-2
-9.39994E-1	-8.25191E-6	-5.09377E-2	-4.78811E-2
-9.49993E-1	-8.62406E-6	-5.32349E-2	-5.05728E-2
-9.59992E-1	-9.01204E-6	-5.56299E-2	-5.34042E-2
-9.69999E-1	-9.42425E-6	-5.81744E-2	-5.64291E-2
-9.79990E-1	-9.85054E-6	-6.08058E-2	-5.95891E-2
-9.89989E-1	-1.02981E-5	-6.35685E-2	-6.29321E-2
-9.99987E-1	-1.07642E-5	-6.64457E-2	-6.64448E-2
-1.00999E+0	-1.12567E-5	-6.94858E-2	-7.01800E-2
4.60164E-9	9.46111E-5	-9.91321E-3	4.90632E-3
9.71563E-7	2.68341E-4	-1.99230E-2	1.81731E-1
2.96001E-6	4.59747E-4	-2.99153E-2	2.15219E-1
2.46245E-7	1.35828E-4	-9.91321E-3	1.82879E-1
1.99492E-6	3.62645E-4	-1.99153E-2	2.76221E-1
4.00332E-6	3.98495E-4	-3.99151E-2	2.51687E-1
