Efficiency(%)	JSC(mA/cm^2)	VOC(V)	FF				 
1.00999E+0	4.82909E-3	2.98092E+1	-3.11344E+1
1.00002E+0	4.72272E-3	2.91526E+1	-3.01481E+1
9.90007E-1	4.66451E-3	2.87933E+1	-2.94783E+1
9.79997E-1	4.60142E-3	2.84038E+1	-2.87856E+1
9.70023E-1	4.53408E-3	2.79881E+1	-2.80756E+1
9.60007E-1	4.44101E-3	2.74136E+1	-2.72154E+1
9.50000E-1	4.36971E-3	2.69735E+1	-2.64993E+1
9.40023E-1	4.30128E-3	2.65511E+1	-2.58104E+1
9.30011E-1	4.23675E-3	2.61528E+1	-2.51524E+1
9.19998E-1	4.17202E-3	2.57532E+1	-2.45014E+1
9.09990E-1	4.10823E-3	2.53594E+1	-2.38644E+1
9.00011E-1	4.03213E-3	2.48897E+1	-2.31655E+1
8.89998E-1	3.97450E-3	2.45340E+1	-2.25803E+1
8.79987E-1	3.90285E-3	2.40917E+1	-2.19238E+1
8.70010E-1	3.83033E-3	2.36440E+1	-2.12725E+1
8.59997E-1	3.76664E-3	2.32509E+1	-2.06780E+1
8.49990E-1	3.70175E-3	2.28503E+1	-2.00854E+1
8.39979E-1	3.63632E-3	2.24464E+1	-1.94980E+1
8.30004E-1	3.57176E-3	2.20479E+1	-1.89243E+1
8.19994E-1	3.51053E-3	2.16699E+1	-1.83756E+1
8.09982E-1	3.44353E-3	2.12564E+1	-1.78048E+1
8.00005E-1	3.38210E-3	2.08772E+1	-1.72718E+1
7.89995E-1	3.31840E-3	2.04840E+1	-1.67345E+1
7.79980E-1	3.24932E-3	2.00575E+1	-1.61784E+1
7.70006E-1	3.18776E-3	1.96775E+1	-1.56689E+1
7.59996E-1	3.13026E-3	1.93226E+1	-1.51862E+1
7.49986E-1	3.06837E-3	1.89406E+1	-1.46899E+1
7.39969E-1	3.00984E-3	1.85793E+1	-1.42172E+1
7.29995E-1	2.94736E-3	1.81936E+1	-1.37345E+1
7.19982E-1	2.88522E-3	1.78100E+1	-1.32605E+1
7.09974E-1	2.82925E-3	1.74645E+1	-1.28225E+1
6.99998E-1	2.76901E-3	1.70927E+1	-1.23731E+1
6.89986E-1	2.70963E-3	1.67261E+1	-1.19346E+1
6.79975E-1	2.64924E-3	1.63533E+1	-1.14993E+1
6.69999E-1	2.59459E-3	1.60160E+1	-1.10969E+1
6.59987E-1	2.53750E-3	1.56636E+1	-1.06905E+1
6.49974E-1	2.48054E-3	1.53120E+1	-1.02920E+1
6.39962E-1	2.42166E-3	1.49485E+1	-9.89295E+0
6.29981E-1	2.36549E-3	1.46018E+1	-9.51277E+0
6.19971E-1	2.30998E-3	1.42591E+1	-9.14193E+0
6.09963E-1	2.25443E-3	1.39162E+1	-8.77806E+0
5.99984E-1	2.19988E-3	1.35795E+1	-8.42553E+0
5.89970E-1	2.14567E-3	1.32449E+1	-8.08074E+0
5.79958E-1	2.09184E-3	1.29126E+1	-7.74432E+0
5.69984E-1	2.04006E-3	1.25930E+1	-7.42274E+0
5.59975E-1	1.98788E-3	1.22709E+1	-7.10587E+0
5.49962E-1	1.93555E-3	1.19478E+1	-6.79510E+0
5.39955E-1	1.88352E-3	1.16267E+1	-6.49212E+0
5.29977E-1	1.83310E-3	1.13154E+1	-6.20157E+0
5.19970E-1	1.78253E-3	1.10033E+1	-5.91662E+0
5.09958E-1	1.73327E-3	1.06992E+1	-5.64234E+0
4.99980E-1	1.68323E-3	1.03903E+1	-5.37223E+0
4.89968E-1	1.63401E-3	1.00865E+1	-5.11071E+0
4.79955E-1	1.58501E-3	9.78401E+0	-4.85614E+0
4.69981E-1	1.53764E-3	9.49160E+0	-4.61311E+0
4.59968E-1	1.49072E-3	9.20198E+0	-4.37706E+0
4.49957E-1	1.44321E-3	8.90870E+0	-4.14533E+0
4.39945E-1	1.39643E-3	8.61994E+0	-3.92172E+0
4.29970E-1	1.35072E-3	8.33778E+0	-3.70734E+0
4.19959E-1	1.30602E-3	8.06185E+0	-3.50119E+0
4.09947E-1	1.26129E-3	7.78574E+0	-3.30066E+0
3.99971E-1	1.21721E-3	7.51364E+0	-3.10780E+0
3.89958E-1	1.17525E-3	7.25463E+0	-2.92554E+0
3.79951E-1	1.13205E-3	6.98796E+0	-2.74569E+0
3.69941E-1	1.08912E-3	6.72296E+0	-2.57197E+0
3.59964E-1	1.05070E-3	6.48580E+0	-2.41433E+0
3.49952E-1	1.01125E-3	6.24228E+0	-2.25905E+0
3.39933E-1	9.65471E-4	5.95970E+0	-2.09503E+0
3.29956E-1	9.27833E-4	5.72736E+0	-1.95427E+0
3.19946E-1	8.85528E-4	5.46622E+0	-1.80858E+0
3.09929E-1	8.46483E-4	5.22520E+0	-1.67471E+0
2.99952E-1	8.09392E-4	4.99625E+0	-1.54978E+0
2.89943E-1	7.74591E-4	4.78143E+0	-1.43365E+0
2.79931E-1	7.42025E-4	4.58040E+0	-1.32595E+0
2.69920E-1	7.01246E-4	4.32868E+0	-1.20827E+0
2.59943E-1	6.64049E-4	4.09907E+0	-1.10189E+0
2.49932E-1	6.32451E-4	3.90402E+0	-1.00904E+0
2.39923E-1	5.99064E-4	3.69793E+0	-9.17495E-1
2.29944E-1	5.67888E-4	3.50548E+0	-8.33572E-1
2.19931E-1	5.35575E-4	3.30602E+0	-7.51909E-1
2.09918E-1	5.03708E-4	3.10931E+0	-6.74974E-1
1.99940E-1	4.71370E-4	2.90969E+0	-6.01617E-1
1.89927E-1	4.44286E-4	2.74251E+0	-5.38651E-1
1.79917E-1	4.14833E-4	2.56070E+0	-4.76435E-1
1.69902E-1	3.88315E-4	2.39701E+0	-4.21154E-1
1.59927E-1	3.59053E-4	2.21638E+0	-3.66555E-1
1.49913E-1	3.33018E-4	2.05567E+0	-3.18688E-1
1.39903E-1	3.05030E-4	1.88290E+0	-2.72413E-1
1.29925E-1	2.79409E-4	1.72475E+0	-2.31735E-1
1.19915E-1	2.54229E-4	1.56931E+0	-1.94606E-1
1.09904E-1	2.29916E-4	1.41923E+0	-1.61303E-1
9.99274E-2	2.06113E-4	1.27230E+0	-1.31477E-1
8.99141E-2	1.83407E-4	1.13214E+0	-1.05269E-1
7.99036E-2	1.60646E-4	9.91642E-1	-8.19398E-2
6.98910E-2	1.39398E-4	8.60481E-1	-6.21923E-2
5.99163E-2	1.18455E-4	7.31204E-1	-4.53061E-2
4.98996E-2	9.76507E-5	6.02782E-1	-3.11051E-2
3.98862E-2	7.74917E-5	4.78344E-1	-1.97304E-2
2.99110E-2	5.77388E-5	3.56412E-1	-1.10245E-2
1.98972E-2	3.83795E-5	2.36910E-1	-4.87472E-3
9.88603E-3	1.90155E-5	1.17380E-1	-1.20002E-3
-8.58307E-5	-3.14506E-7	-1.94140E-3	-1.72318E-7
-1.01974E-2	-1.99039E-5	-1.22864E-1	-1.29565E-3
-2.02124E-2	-3.98111E-5	-2.45748E-1	-5.13666E-3
-3.02241E-2	-5.96015E-5	-3.67910E-1	-1.14992E-2
-4.01950E-2	-7.98205E-5	-4.92719E-1	-2.04807E-2
-5.02071E-2	-1.00624E-4	-6.21136E-1	-3.22497E-2
-6.02238E-2	-1.21522E-4	-7.50136E-1	-4.67177E-2
-7.02324E-2	-1.43633E-4	-8.86623E-1	-6.43947E-2
-8.02107E-2	-1.66990E-4	-1.03080E+0	-8.55030E-2
-9.02205E-2	-1.92176E-4	-1.18627E+0	-1.10678E-1
-1.00228E-1	-2.19123E-4	-1.35261E+0	-1.40196E-1
-1.10244E-1	-2.45055E-4	-1.51269E+0	-1.72455E-1
-1.20224E-1	-2.71411E-4	-1.67538E+0	-2.08294E-1
-1.30232E-1	-3.00137E-4	-1.85270E+0	-2.49514E-1
-1.40243E-1	-3.33600E-4	-2.05926E+0	-2.98652E-1
-1.50218E-1	-3.62351E-4	-2.23673E+0	-3.47464E-1
-1.60230E-1	-3.94055E-4	-2.43244E+0	-4.03050E-1
-1.70240E-1	-4.25902E-4	-2.62902E+0	-4.62839E-1
-1.80252E-1	-4.59830E-4	-2.83846E+0	-5.29098E-1
-1.90228E-1	-4.92143E-4	-3.03792E+0	-5.97619E-1
-2.00240E-1	-5.26355E-4	-3.24910E+0	-6.72803E-1
-2.10257E-1	-5.62631E-4	-3.47303E+0	-7.55149E-1
-2.20268E-1	-5.96293E-4	-3.68082E+0	-8.38435E-1
-2.30242E-1	-6.33849E-4	-3.91265E+0	-9.31599E-1
-2.40252E-1	-6.74855E-4	-4.16577E+0	-1.03499E+0
-2.50265E-1	-7.12455E-4	-4.39787E+0	-1.13819E+0
-2.60239E-1	-7.52267E-4	-4.64362E+0	-1.24969E+0
-2.70249E-1	-7.94697E-4	-4.90554E+0	-1.37096E+0
-2.80259E-1	-8.39044E-4	-5.17928E+0	-1.50108E+0
-2.90273E-1	-8.76837E-4	-5.41257E+0	-1.62474E+0
-3.00249E-1	-9.14676E-4	-5.64615E+0	-1.75310E+0
-3.10260E-1	-9.63632E-4	-5.94835E+0	-1.90851E+0
-3.20269E-1	-1.00945E-3	-6.23117E+0	-2.06376E+0
-3.30277E-1	-1.04369E-3	-6.44253E+0	-2.20043E+0
-3.40255E-1	-1.08774E-3	-6.71444E+0	-2.36259E+0
-3.50267E-1	-1.12756E-3	-6.96025E+0	-2.52114E+0
-3.60279E-1	-1.16962E-3	-7.21988E+0	-2.68994E+0
-3.70250E-1	-1.21557E-3	-7.50352E+0	-2.87299E+0
-3.80264E-1	-1.26143E-3	-7.78660E+0	-3.06201E+0
-3.90275E-1	-1.32146E-3	-8.15716E+0	-3.29218E+0
-4.00285E-1	-1.37191E-3	-8.46858E+0	-3.50553E+0
-4.10258E-1	-1.43598E-3	-8.86407E+0	-3.76066E+0
-4.20266E-1	-1.49277E-3	-9.21463E+0	-4.00475E+0
-4.30277E-1	-1.56263E-3	-9.64586E+0	-4.29203E+0
-4.40289E-1	-1.61076E-3	-9.94296E+0	-4.52717E+0
-4.50263E-1	-1.65570E-3	-1.02204E+1	-4.75890E+0
-4.60276E-1	-1.68131E-3	-1.03785E+1	-4.93997E+0
-4.70286E-1	-1.71784E-3	-1.06040E+1	-5.15707E+0
-4.80261E-1	-1.76689E-3	-1.09067E+1	-5.41683E+0
-4.90272E-1	-1.83075E-3	-1.13009E+1	-5.72960E+0
-5.00284E-1	-1.87089E-3	-1.15487E+1	-5.97480E+0
-5.10295E-1	-1.91591E-3	-1.18266E+1	-6.24101E+0
-5.20267E-1	-1.94555E-3	-1.20096E+1	-6.46141E+0
-5.30277E-1	-2.00940E-3	-1.24037E+1	-6.80186E+0
-5.40287E-1	-2.06143E-3	-1.27249E+1	-7.10971E+0
-5.50299E-1	-2.15328E-3	-1.32919E+1	-7.56411E+0
-5.60276E-1	-2.22342E-3	-1.37248E+1	-7.95210E+0
-5.70281E-1	-2.26969E-3	-1.40104E+1	-8.26255E+0
-5.80289E-1	-2.28532E-3	-1.41069E+1	-8.46545E+0
-5.90304E-1	-2.32343E-3	-1.43422E+1	-8.75515E+0
-6.00281E-1	-2.36460E-3	-1.45963E+1	-9.06089E+0
-6.10291E-1	-2.43893E-3	-1.50551E+1	-9.50156E+0
-6.20301E-1	-2.48122E-3	-1.53162E+1	-9.82486E+0
-6.30280E-1	-2.54673E-3	-1.57206E+1	-1.02465E+1
-6.40291E-1	-2.62257E-3	-1.61887E+1	-1.07192E+1
-6.50304E-1	-2.66027E-3	-1.64214E+1	-1.10433E+1
-6.60318E-1	-2.71393E-3	-1.67527E+1	-1.14396E+1
-6.70287E-1	-2.75823E-3	-1.70261E+1	-1.18018E+1
-6.80299E-1	-2.80430E-3	-1.73105E+1	-1.21782E+1
-6.90307E-1	-2.87324E-3	-1.77360E+1	-1.26611E+1
-7.00315E-1	-2.96071E-3	-1.82760E+1	-1.32357E+1
-7.10293E-1	-3.05562E-3	-1.88619E+1	-1.38546E+1
-7.20304E-1	-3.11583E-3	-1.92335E+1	-1.43268E+1
-7.30313E-1	-3.14184E-3	-1.93941E+1	-1.46471E+1
-7.40285E-1	-3.17372E-3	-1.95909E+1	-1.49977E+1
-7.50297E-1	-3.18193E-3	-1.96415E+1	-1.52399E+1
-7.60309E-1	-3.22733E-3	-1.99218E+1	-1.56636E+1
-7.70322E-1	-3.27499E-3	-2.02160E+1	-1.61043E+1
-7.80298E-1	-3.34229E-3	-2.06314E+1	-1.66480E+1
-7.90307E-1	-3.41128E-3	-2.10573E+1	-1.72096E+1
-8.00321E-1	-3.47585E-3	-2.14559E+1	-1.77576E+1
-8.10330E-1	-3.51815E-3	-2.17170E+1	-1.81985E+1
-8.20307E-1	-3.59688E-3	-2.22030E+1	-1.88348E+1
-8.30316E-1	-3.64931E-3	-2.25266E+1	-1.93425E+1
-8.40325E-1	-3.73006E-3	-2.30251E+1	-2.00088E+1
-8.50296E-1	-3.80718E-3	-2.35011E+1	-2.06648E+1
-8.60310E-1	-3.87161E-3	-2.38988E+1	-2.12620E+1
-8.70321E-1	-3.94803E-3	-2.43706E+1	-2.19340E+1
-8.80330E-1	-4.01813E-3	-2.48033E+1	-2.25802E+1
-8.90306E-1	-4.10654E-3	-2.53490E+1	-2.33385E+1
-9.00317E-1	-4.19280E-3	-2.58815E+1	-2.40967E+1
-9.10326E-1	-4.27441E-3	-2.63852E+1	-2.48389E+1
-9.20335E-1	-4.37339E-3	-2.69962E+1	-2.56935E+1
-9.30313E-1	-4.47552E-3	-2.76267E+1	-2.65785E+1
-9.40329E-1	-4.57352E-3	-2.82316E+1	-2.74529E+1
-9.50336E-1	-4.68258E-3	-2.89048E+1	-2.84067E+1
-9.60307E-1	-4.78037E-3	-2.95085E+1	-2.93042E+1
-9.70323E-1	-4.89211E-3	-3.01982E+1	-3.03020E+1
-9.80335E-1	-5.01924E-3	-3.09830E+1	-3.14102E+1
-9.90345E-1	-5.13229E-3	-3.16808E+1	-3.24456E+1
-1.00032E+0	-5.25509E-3	-3.24388E+1	-3.35566E+1
-1.01032E+0	-5.39455E-3	-3.32997E+1	-3.47915E+1
0.00000E+0	-1.94140E-3	-8.58307E-5	-0.00000E+0
3.34913E-8	3.61269E-4	-1.02000E-2	8.78876E-3
5.70029E-8	6.54951E-4	-8.41618E-5	9.99999E-1
1.68584E-8	1.94250E-4	-8.39233E-5	9.99998E-1
5.77473E-8	6.65389E-4	-1.01922E-2	8.23407E-3
2.50887E-6	1.34835E-3	-1.01864E-2	1.76637E-1
