Efficiency(%)	JSC(mA/cm^2)	VOC(V)	FF				 
1.01002E+0	2.02039E-6	1.24715E-2	-1.25965E-2
1.00002E+0	1.99830E-6	1.23352E-2	-1.23354E-2
9.90022E-1	1.95848E-6	1.20894E-2	-1.19688E-2
9.80019E-1	1.92568E-6	1.18869E-2	-1.16494E-2
9.70024E-1	1.88363E-6	1.16273E-2	-1.12788E-2
9.60018E-1	1.84483E-6	1.13878E-2	-1.09325E-2
9.50019E-1	1.80608E-6	1.11486E-2	-1.05914E-2
9.40019E-1	1.76825E-6	1.09151E-2	-1.02604E-2
9.30019E-1	1.72701E-6	1.06606E-2	-9.91452E-3
9.20025E-1	1.69154E-6	1.04416E-2	-9.60654E-3
9.10018E-1	1.65884E-6	1.02398E-2	-9.31836E-3
9.00019E-1	1.62120E-6	1.00074E-2	-9.00686E-3
8.90017E-1	1.58646E-6	9.79296E-3	-8.71590E-3
8.80018E-1	1.55080E-6	9.57284E-3	-8.42427E-3
8.69986E-1	1.51407E-6	9.34611E-3	-8.13099E-3
8.59984E-1	1.48042E-6	9.13840E-3	-7.85887E-3
8.49983E-1	1.44736E-6	8.93432E-3	-7.59402E-3
8.39983E-1	1.41975E-6	8.76389E-3	-7.36152E-3
8.29985E-1	1.38353E-6	8.54031E-3	-7.08833E-3
8.19979E-1	1.35205E-6	8.34599E-3	-6.84353E-3
8.09982E-1	1.32081E-6	8.15315E-3	-6.60390E-3
7.99980E-1	1.29331E-6	7.98340E-3	-6.38656E-3
7.89979E-1	1.26653E-6	7.81809E-3	-6.17612E-3
7.79971E-1	1.23836E-6	7.64420E-3	-5.96225E-3
7.69970E-1	1.20756E-6	7.45407E-3	-5.73941E-3
7.59972E-1	1.17797E-6	7.27142E-3	-5.52608E-3
7.49972E-1	1.15345E-6	7.12006E-3	-5.33985E-3
7.39967E-1	1.12456E-6	6.94173E-3	-5.13665E-3
7.29968E-1	1.09761E-6	6.77537E-3	-4.94580E-3
7.19975E-1	1.06841E-6	6.59512E-3	-4.74832E-3
7.09974E-1	1.04323E-6	6.43969E-3	-4.57201E-3
6.99975E-1	1.01698E-6	6.27765E-3	-4.39420E-3
6.89974E-1	9.91748E-7	6.12190E-3	-4.22395E-3
6.79976E-1	9.66617E-7	5.96677E-3	-4.05726E-3
6.69968E-1	9.40680E-7	5.80667E-3	-3.89028E-3
6.59968E-1	9.18425E-7	5.66929E-3	-3.74155E-3
6.49971E-1	8.96628E-7	5.53474E-3	-3.59742E-3
6.39973E-1	8.73332E-7	5.39094E-3	-3.45005E-3
6.29966E-1	8.49635E-7	5.24466E-3	-3.30396E-3
6.19966E-1	8.28272E-7	5.11279E-3	-3.16976E-3
6.09967E-1	8.05689E-7	4.97339E-3	-3.03360E-3
5.99963E-1	7.82022E-7	4.82730E-3	-2.89620E-3
5.89966E-1	7.61059E-7	4.69790E-3	-2.77160E-3
5.79965E-1	7.39943E-7	4.56755E-3	-2.64902E-3
5.69970E-1	7.20406E-7	4.44695E-3	-2.53463E-3
5.59970E-1	6.99557E-7	4.31825E-3	-2.41809E-3
5.49973E-1	6.79660E-7	4.19543E-3	-2.30737E-3
5.39972E-1	6.60927E-7	4.07980E-3	-2.20298E-3
5.29974E-1	6.42403E-7	3.96545E-3	-2.10159E-3
5.19967E-1	6.22296E-7	3.84133E-3	-1.99737E-3
5.09973E-1	6.04249E-7	3.72993E-3	-1.90216E-3
4.99973E-1	5.85149E-7	3.61203E-3	-1.80592E-3
4.89968E-1	5.67608E-7	3.50375E-3	-1.71673E-3
4.79969E-1	5.50400E-7	3.39753E-3	-1.63071E-3
4.69972E-1	5.33801E-7	3.29507E-3	-1.54859E-3
4.59972E-1	5.17424E-7	3.19398E-3	-1.46914E-3
4.49969E-1	5.00072E-7	3.08686E-3	-1.38899E-3
4.39972E-1	4.83257E-7	2.98307E-3	-1.31247E-3
4.29973E-1	4.69669E-7	2.89919E-3	-1.24657E-3
4.19974E-1	4.53476E-7	2.79923E-3	-1.17561E-3
4.09978E-1	4.37743E-7	2.70212E-3	-1.10781E-3
3.99978E-1	4.23479E-7	2.61407E-3	-1.04557E-3
3.89980E-1	4.09671E-7	2.52883E-3	-9.86194E-4
3.79974E-1	3.93844E-7	2.43114E-3	-9.23768E-4
3.69975E-1	3.80266E-7	2.34732E-3	-8.68450E-4
3.59977E-1	3.66132E-7	2.26007E-3	-8.13575E-4
3.49978E-1	3.51544E-7	2.17002E-3	-7.59461E-4
3.39972E-1	3.38627E-7	2.09029E-3	-7.10640E-4
3.29973E-1	3.25752E-7	2.01081E-3	-6.63515E-4
3.19971E-1	3.12295E-7	1.92775E-3	-6.16823E-4
3.09971E-1	3.01133E-7	1.85885E-3	-5.76188E-4
2.99972E-1	2.89469E-7	1.78685E-3	-5.36004E-4
2.89969E-1	2.77138E-7	1.71073E-3	-4.96058E-4
2.79974E-1	2.65363E-7	1.63804E-3	-4.58610E-4
2.69971E-1	2.54175E-7	1.56898E-3	-4.23579E-4
2.59972E-1	2.42393E-7	1.49625E-3	-3.88984E-4
2.49971E-1	2.31799E-7	1.43086E-3	-3.57673E-4
2.39972E-1	2.20843E-7	1.36323E-3	-3.27137E-4
2.29971E-1	2.10497E-7	1.29936E-3	-2.98816E-4
2.19969E-1	2.00117E-7	1.23529E-3	-2.71726E-4
2.09968E-1	1.90315E-7	1.17478E-3	-2.46667E-4
1.99960E-1	1.79985E-7	1.11102E-3	-2.22159E-4
1.89960E-1	1.70924E-7	1.05509E-3	-2.00424E-4
1.79962E-1	1.60688E-7	9.91901E-4	-1.78505E-4
1.69965E-1	1.52073E-7	9.38722E-4	-1.59550E-4
1.59960E-1	1.41841E-7	8.75562E-4	-1.40055E-4
1.49962E-1	1.33407E-7	8.23500E-4	-1.23494E-4
1.39961E-1	1.24765E-7	7.70154E-4	-1.07792E-4
1.29963E-1	1.16192E-7	7.17235E-4	-9.32140E-5
1.19965E-1	1.07361E-7	6.62722E-4	-7.95035E-5
1.09960E-1	9.94930E-8	6.14154E-4	-6.75324E-5
9.99596E-2	9.16623E-8	5.65817E-4	-5.65588E-5
8.99589E-2	8.39299E-8	5.18086E-4	-4.66064E-5
7.99599E-2	7.63874E-8	4.71527E-4	-3.77033E-5
6.99599E-2	6.87700E-8	4.24506E-4	-2.96984E-5
5.99611E-2	6.12101E-8	3.77840E-4	-2.26557E-5
4.99549E-2	5.37472E-8	3.31773E-4	-1.65737E-5
3.99539E-2	4.66216E-8	2.87788E-4	-1.14982E-5
2.99551E-2	3.96636E-8	2.44837E-4	-7.33412E-6
1.99583E-2	3.25835E-8	2.01133E-4	-4.01427E-6
9.95731E-3	2.54392E-8	1.57032E-4	-1.56362E-6
-4.52995E-5	1.84294E-8	1.13762E-4	5.15335E-9
-9.86028E-3	1.15552E-8	7.13284E-5	7.03318E-7
-1.98703E-2	4.84865E-9	2.99299E-5	5.94717E-7
-2.98700E-2	-1.87829E-9	-1.15944E-5	-3.46324E-7
-3.98688E-2	-9.53932E-9	-5.88847E-5	-2.34766E-6
-4.98650E-2	-1.63186E-8	-1.00732E-4	-5.02301E-6
-5.98750E-2	-2.42133E-8	-1.49465E-4	-8.94921E-6
-6.98707E-2	-3.13525E-8	-1.93534E-4	-1.35224E-5
-7.98726E-2	-3.88067E-8	-2.39548E-4	-1.91333E-5
-8.98714E-2	-4.69694E-8	-2.89935E-4	-2.60568E-5
-9.98757E-2	-5.47836E-8	-3.38170E-4	-3.37750E-5
-1.09870E-1	-6.29007E-8	-3.88276E-4	-4.26599E-5
-1.19872E-1	-7.09218E-8	-4.37789E-4	-5.24786E-5
-1.29872E-1	-7.93973E-8	-4.90107E-4	-6.36511E-5
-1.39868E-1	-8.81013E-8	-5.43835E-4	-7.60651E-5
-1.49871E-1	-9.67546E-8	-5.97251E-4	-8.95105E-5
-1.59868E-1	-1.05234E-7	-6.49593E-4	-1.03849E-4
-1.69870E-1	-1.14513E-7	-7.06870E-4	-1.20076E-4
-1.79868E-1	-1.23921E-7	-7.64944E-4	-1.37589E-4
-1.89867E-1	-1.34110E-7	-8.27840E-4	-1.57179E-4
-1.99870E-1	-1.43945E-7	-8.88549E-4	-1.77594E-4
-2.09880E-1	-1.53323E-7	-9.46438E-4	-1.98638E-4
-2.19877E-1	-1.63522E-7	-1.00940E-3	-2.21943E-4
-2.29878E-1	-1.74085E-7	-1.07460E-3	-2.47027E-4
-2.39881E-1	-1.85288E-7	-1.14375E-3	-2.74365E-4
-2.49879E-1	-1.96555E-7	-1.21330E-3	-3.03179E-4
-2.59880E-1	-2.08415E-7	-1.28651E-3	-3.34339E-4
-2.69879E-1	-2.19967E-7	-1.35782E-3	-3.66447E-4
-2.79877E-1	-2.32272E-7	-1.43378E-3	-4.01281E-4
-2.89877E-1	-2.45148E-7	-1.51326E-3	-4.38659E-4
-2.99875E-1	-2.57212E-7	-1.58773E-3	-4.76120E-4
-3.09873E-1	-2.70602E-7	-1.67038E-3	-5.17607E-4
-3.19876E-1	-2.85030E-7	-1.75944E-3	-5.62804E-4
-3.29872E-1	-2.99184E-7	-1.84681E-3	-6.09212E-4
-3.39873E-1	-3.14727E-7	-1.94276E-3	-6.60291E-4
-3.49880E-1	-3.29170E-7	-2.03191E-3	-7.10926E-4
-3.59882E-1	-3.44182E-7	-2.12458E-3	-7.64598E-4
-3.69882E-1	-3.61067E-7	-2.22881E-3	-8.24396E-4
-3.79881E-1	-3.76191E-7	-2.32217E-3	-8.82147E-4
-3.89889E-1	-3.94985E-7	-2.43818E-3	-9.50619E-4
-3.99888E-1	-4.12537E-7	-2.54652E-3	-1.01832E-3
-4.09883E-1	-4.30895E-7	-2.65985E-3	-1.09023E-3
-4.19884E-1	-4.51097E-7	-2.78455E-3	-1.16919E-3
-4.29881E-1	-4.72220E-7	-2.91494E-3	-1.25308E-3
-4.39884E-1	-4.94204E-7	-3.05064E-3	-1.34193E-3
-4.49883E-1	-5.17235E-7	-3.19281E-3	-1.43639E-3
-4.59885E-1	-5.42932E-7	-3.35143E-3	-1.54127E-3
-4.69883E-1	-5.67492E-7	-3.50304E-3	-1.64602E-3
-4.79885E-1	-5.96656E-7	-3.68306E-3	-1.76745E-3
-4.89884E-1	-6.26778E-7	-3.86900E-3	-1.89536E-3
-4.99894E-1	-6.60790E-7	-4.07895E-3	-2.03904E-3
-5.09891E-1	-6.94071E-7	-4.28439E-3	-2.18457E-3
-5.19887E-1	-7.31781E-7	-4.51717E-3	-2.34842E-3
-5.29886E-1	-7.72634E-7	-4.76935E-3	-2.52721E-3
-5.39893E-1	-8.17161E-7	-5.04420E-3	-2.72333E-3
-5.49893E-1	-8.64635E-7	-5.33725E-3	-2.93492E-3
-5.59887E-1	-9.17146E-7	-5.66140E-3	-3.16974E-3
-5.69885E-1	-9.74929E-7	-6.01808E-3	-3.42961E-3
-5.79887E-1	-1.03557E-6	-6.39241E-3	-3.70687E-3
-5.89885E-1	-1.10699E-6	-6.83327E-3	-4.03084E-3
-5.99882E-1	-1.18140E-6	-7.29259E-3	-4.37470E-3
-6.09889E-1	-1.26451E-6	-7.80562E-3	-4.76056E-3
-6.19884E-1	-1.35667E-6	-8.37451E-3	-5.19122E-3
-6.29887E-1	-1.45843E-6	-9.00265E-3	-5.67065E-3
-6.39919E-1	-1.57021E-6	-9.69265E-3	-6.20251E-3
-6.49925E-1	-1.69374E-6	-1.04552E-2	-6.79509E-3
-6.59928E-1	-1.83045E-6	-1.12991E-2	-7.45658E-3
-6.69925E-1	-1.98182E-6	-1.22335E-2	-8.19550E-3
-6.79931E-1	-2.14888E-6	-1.32647E-2	-9.01907E-3
-6.89929E-1	-2.32909E-6	-1.43771E-2	-9.91918E-3
-6.99927E-1	-2.52557E-6	-1.55899E-2	-1.09118E-2
-7.09928E-1	-2.74205E-6	-1.69262E-2	-1.20164E-2
-7.19928E-1	-2.97698E-6	-1.83764E-2	-1.32297E-2
-7.29923E-1	-3.23054E-6	-1.99416E-2	-1.45558E-2
-7.39923E-1	-3.50547E-6	-2.16387E-2	-1.60110E-2
-7.49920E-1	-3.79936E-6	-2.34528E-2	-1.75878E-2
-7.59927E-1	-4.11802E-6	-2.54199E-2	-1.93173E-2
-7.69928E-1	-4.45597E-6	-2.75060E-2	-2.11776E-2
-7.79926E-1	-4.81943E-6	-2.97496E-2	-2.32025E-2
-7.89937E-1	-5.20609E-6	-3.21364E-2	-2.53857E-2
-7.99933E-1	-5.61872E-6	-3.46835E-2	-2.77444E-2
-8.09934E-1	-6.05394E-6	-3.73700E-2	-3.02672E-2
-8.19932E-1	-6.51272E-6	-4.02020E-2	-3.29629E-2
-8.29940E-1	-7.00134E-6	-4.32181E-2	-3.58685E-2
-8.39938E-1	-7.51119E-6	-4.63654E-2	-3.89440E-2
-8.49940E-1	-8.05384E-6	-4.97151E-2	-4.22548E-2
-8.59942E-1	-8.61944E-6	-5.32064E-2	-4.57544E-2
-8.69941E-1	-9.21269E-6	-5.68685E-2	-4.94722E-2
-8.79937E-1	-9.83393E-6	-6.07033E-2	-5.34151E-2
-8.89936E-1	-1.04902E-5	-6.47543E-2	-5.76272E-2
-8.99939E-1	-1.11705E-5	-6.89537E-2	-6.20541E-2
-9.09941E-1	-1.18841E-5	-7.33586E-2	-6.67520E-2
-9.19943E-1	-1.26258E-5	-7.79370E-2	-7.16976E-2
-9.29942E-1	-1.33892E-5	-8.26494E-2	-7.68591E-2
-9.39949E-1	-1.41977E-5	-8.76401E-2	-8.23772E-2
-9.49951E-1	-1.50372E-5	-9.28222E-2	-8.81766E-2
-9.59952E-1	-1.59124E-5	-9.82247E-2	-9.42910E-2
-9.69954E-1	-1.68241E-5	-1.03852E-1	-1.00732E-1
-9.79955E-1	-1.77745E-5	-1.09719E-1	-1.07520E-1
-9.89955E-1	-1.87642E-5	-1.15828E-1	-1.14665E-1
-9.99952E-1	-1.97932E-5	-1.22180E-1	-1.22174E-1
-1.00995E+0	-2.08647E-5	-1.28794E-1	-1.30076E-1
7.03318E-7	1.13762E-4	-2.98700E-2	2.06976E-1
1.28808E-5	1.70972E-4	-1.19833E-1	6.28697E-1
3.86418E-5	7.39932E-4	-1.89870E-1	2.75048E-1
3.99847E-5	2.17881E-4	-4.99870E-1	3.67128E-1
1.07102E+2	-2.68875E+2	8.99946E-1	4.42620E-1
2.75798E-5	5.84952E-4	-1.69916E-1	2.77483E-1
