Efficiency(%)	JSC(mA/cm^2)	VOC(V)	FF				 
1.01002E+0	5.53131E-5	3.21588E-1	-3.30092E-1
1.00002E+0	3.00000E-4	1.74419E+0	-1.77258E+0
9.90022E-1	2.14818E-4	1.24894E+0	-1.25659E+0
9.80022E-1	1.07914E-4	6.27407E-1	-6.24871E-1
9.70031E-1	-1.40257E-5	-8.15448E-2	8.03871E-2
9.60025E-1	-1.52975E-4	-8.89390E-1	8.67720E-1
9.50027E-1	-2.96227E-4	-1.72225E+0	1.66279E+0
9.40030E-1	-4.41690E-4	-2.56797E+0	2.45322E+0
9.30025E-1	-5.81970E-4	-3.38355E+0	3.19795E+0
9.20027E-1	-7.16677E-4	-4.16673E+0	3.89583E+0
9.10028E-1	-8.46360E-4	-4.92070E+0	4.55079E+0
9.00030E-1	-9.69531E-4	-5.63681E+0	5.15579E+0
8.90020E-1	-1.08364E-3	-6.30023E+0	5.69851E+0
8.80020E-1	-1.18503E-3	-6.88971E+0	6.16167E+0
8.69986E-1	-1.28382E-3	-7.46407E+0	6.59922E+0
8.59987E-1	-1.36894E-3	-7.95895E+0	6.95589E+0
8.49987E-1	-1.45370E-3	-8.45174E+0	7.30068E+0
8.39985E-1	-1.52713E-3	-8.87866E+0	7.57921E+0
8.29987E-1	-1.58878E-3	-9.23709E+0	7.79133E+0
8.19980E-1	-1.64935E-3	-9.58924E+0	7.99084E+0
8.09983E-1	-1.70602E-3	-9.91872E+0	8.16463E+0
7.99981E-1	-1.75472E-3	-1.02019E+1	8.29400E+0
7.89980E-1	-1.79666E-3	-1.04457E+1	8.38607E+0
7.79973E-1	-1.83264E-3	-1.06549E+1	8.44565E+0
7.69972E-1	-1.87540E-3	-1.09035E+1	8.53189E+0
7.59971E-1	-1.91233E-3	-1.11182E+1	8.58690E+0
7.49974E-1	-1.93840E-3	-1.12698E+1	8.58946E+0
7.39968E-1	-1.95971E-3	-1.13937E+1	8.56803E+0
7.29973E-1	-1.98699E-3	-1.15523E+1	8.56996E+0
7.19973E-1	-2.01600E-3	-1.17209E+1	8.57597E+0
7.09972E-1	-2.03810E-3	-1.18494E+1	8.54955E+0
6.99973E-1	-2.05536E-3	-1.19498E+1	8.50052E+0
6.89973E-1	-2.07816E-3	-1.20823E+1	8.47203E+0
6.79977E-1	-2.10027E-3	-1.22109E+1	8.43812E+0
6.69971E-1	-2.11442E-3	-1.22931E+1	8.36997E+0
6.59972E-1	-2.12201E-3	-1.23373E+1	8.27465E+0
6.49974E-1	-2.13756E-3	-1.24277E+1	8.20901E+0
6.39975E-1	-2.15653E-3	-1.25380E+1	8.15446E+0
6.29971E-1	-2.17255E-3	-1.26311E+1	8.08662E+0
6.19969E-1	-2.18022E-3	-1.26757E+1	7.98632E+0
6.09968E-1	-2.19280E-3	-1.27488E+1	7.90283E+0
5.99972E-1	-2.21271E-3	-1.28646E+1	7.84390E+0
5.89975E-1	-2.22069E-3	-1.29110E+1	7.74102E+0
5.79975E-1	-2.22461E-3	-1.29338E+1	7.62324E+0
5.69975E-1	-2.24268E-3	-1.30388E+1	7.55265E+0
5.59978E-1	-2.25493E-3	-1.31101E+1	7.46072E+0
5.49981E-1	-2.25557E-3	-1.31138E+1	7.32960E+0
5.39980E-1	-2.25964E-3	-1.31374E+1	7.20930E+0
5.29981E-1	-2.27340E-3	-1.32174E+1	7.11890E+0
5.19974E-1	-2.28683E-3	-1.32955E+1	7.02574E+0
5.09971E-1	-2.28641E-3	-1.32931E+1	6.88932E+0
4.99974E-1	-2.29110E-3	-1.33203E+1	6.76812E+0
4.89968E-1	-2.30088E-3	-1.33772E+1	6.66098E+0
4.79969E-1	-2.31608E-3	-1.34656E+1	6.56815E+0
4.69968E-1	-2.31808E-3	-1.34772E+1	6.43685E+0
4.59969E-1	-2.31791E-3	-1.34762E+1	6.29943E+0
4.49964E-1	-2.32906E-3	-1.35410E+1	6.19206E+0
4.39967E-1	-2.33805E-3	-1.35933E+1	6.07786E+0
4.29967E-1	-2.34288E-3	-1.36214E+1	5.95198E+0
4.19972E-1	-2.34546E-3	-1.36364E+1	5.82002E+0
4.09973E-1	-2.35259E-3	-1.36778E+1	5.69873E+0
3.99973E-1	-2.36243E-3	-1.37351E+1	5.58298E+0
3.89977E-1	-2.35625E-3	-1.36991E+1	5.42921E+0
3.79972E-1	-2.36150E-3	-1.37297E+1	5.30171E+0
3.69971E-1	-2.36904E-3	-1.37735E+1	5.17865E+0
3.59968E-1	-2.36650E-3	-1.37587E+1	5.03323E+0
3.49971E-1	-2.38202E-3	-1.38490E+1	4.92554E+0
3.39964E-1	-2.38689E-3	-1.38773E+1	4.79448E+0
3.29968E-1	-2.38305E-3	-1.38549E+1	4.64602E+0
3.19967E-1	-2.38589E-3	-1.38715E+1	4.51058E+0
3.09965E-1	-2.39708E-3	-1.39365E+1	4.39007E+0
2.99963E-1	-2.40357E-3	-1.39742E+1	4.25991E+0
2.89965E-1	-2.39884E-3	-1.39467E+1	4.10982E+0
2.79969E-1	-2.40908E-3	-1.40063E+1	3.98509E+0
2.69967E-1	-2.42181E-3	-1.40803E+1	3.86302E+0
2.59976E-1	-2.41766E-3	-1.40562E+1	3.71368E+0
2.49972E-1	-2.41517E-3	-1.40417E+1	3.56710E+0
2.39970E-1	-2.42344E-3	-1.40898E+1	3.43610E+0
2.29966E-1	-2.41784E-3	-1.40572E+1	3.28524E+0
2.19968E-1	-2.42169E-3	-1.40796E+1	3.14742E+0
2.09968E-1	-2.43933E-3	-1.41822E+1	3.02622E+0
1.99959E-1	-2.43935E-3	-1.41823E+1	2.88198E+0
1.89959E-1	-2.43574E-3	-1.41613E+1	2.73380E+0
1.79959E-1	-2.43454E-3	-1.41543E+1	2.58861E+0
1.69966E-1	-2.44286E-3	-1.42027E+1	2.45322E+0
1.59965E-1	-2.44336E-3	-1.42056E+1	2.30935E+0
1.49967E-1	-2.44269E-3	-1.42017E+1	2.16441E+0
1.39967E-1	-2.45327E-3	-1.42632E+1	2.02884E+0
1.29966E-1	-2.46064E-3	-1.43060E+1	1.88953E+0
1.19961E-1	-2.45478E-3	-1.42720E+1	1.73992E+0
1.09964E-1	-2.45263E-3	-1.42595E+1	1.59353E+0
9.99615E-2	-2.46172E-3	-1.43123E+1	1.45394E+0
8.99611E-2	-2.47213E-3	-1.43728E+1	1.31402E+0
7.99687E-2	-2.46464E-3	-1.43293E+1	1.16453E+0
6.99661E-2	-2.46688E-3	-1.43423E+1	1.01979E+0
5.99678E-2	-2.47124E-3	-1.43677E+1	8.75608E-1
4.99611E-2	-2.47460E-3	-1.43872E+1	7.30489E-1
3.99618E-2	-2.47502E-3	-1.43897E+1	5.84387E-1
2.99616E-2	-2.47627E-3	-1.43969E+1	4.38369E-1
1.99621E-2	-2.48665E-3	-1.44573E+1	2.93290E-1
9.96089E-3	-2.49307E-3	-1.44946E+1	1.46727E-1
-3.74317E-5	-2.49029E-3	-1.44784E+1	-5.50764E-4
-9.87554E-3	-2.48463E-3	-1.44455E+1	-1.44977E-1
-1.98827E-2	-2.48921E-3	-1.44722E+1	-2.92424E-1
-2.98772E-2	-2.49848E-3	-1.45260E+1	-4.41054E-1
-3.98753E-2	-2.49305E-3	-1.44945E+1	-5.87370E-1
-4.98753E-2	-2.48699E-3	-1.44592E+1	-7.32885E-1
-5.98824E-2	-2.50270E-3	-1.45506E+1	-8.85492E-1
-6.98822E-2	-2.50345E-3	-1.45549E+1	-1.03367E+0
-7.98788E-2	-2.49373E-3	-1.44984E+1	-1.17695E+0
-8.98783E-2	-2.50665E-3	-1.45735E+1	-1.33114E+0
-9.98843E-2	-2.50254E-3	-1.45497E+1	-1.47691E+0
-1.09884E-1	-2.49950E-3	-1.45320E+1	-1.62280E+0
-1.19884E-1	-2.50898E-3	-1.45871E+1	-1.77719E+0
-1.29884E-1	-2.51406E-3	-1.46166E+1	-1.92934E+0
-1.39881E-1	-2.50591E-3	-1.45692E+1	-2.07110E+0
-1.49879E-1	-2.51787E-3	-1.46388E+1	-2.22972E+0
-1.59879E-1	-2.51811E-3	-1.46402E+1	-2.37872E+0
-1.69882E-1	-2.50731E-3	-1.45774E+1	-2.51670E+0
-1.79882E-1	-2.51806E-3	-1.46399E+1	-2.67627E+0
-1.89884E-1	-2.51888E-3	-1.46447E+1	-2.82600E+0
-1.99882E-1	-2.51627E-3	-1.46295E+1	-2.97172E+0
-2.09889E-1	-2.52900E-3	-1.47035E+1	-3.13628E+0
-2.19887E-1	-2.52817E-3	-1.46987E+1	-3.28460E+0
-2.29889E-1	-2.51941E-3	-1.46477E+1	-3.42211E+0
-2.39891E-1	-2.53038E-3	-1.47115E+1	-3.58654E+0
-2.49891E-1	-2.53264E-3	-1.47247E+1	-3.73939E+0
-2.59889E-1	-2.52858E-3	-1.47010E+1	-3.88276E+0
-2.69891E-1	-2.52489E-3	-1.46796E+1	-4.02631E+0
-2.79891E-1	-2.53983E-3	-1.47665E+1	-4.20020E+0
-2.89889E-1	-2.52941E-3	-1.47059E+1	-4.33239E+0
-2.99890E-1	-2.52934E-3	-1.47055E+1	-4.48173E+0
-3.09886E-1	-2.53905E-3	-1.47619E+1	-4.64889E+0
-3.19886E-1	-2.53442E-3	-1.47350E+1	-4.79016E+0
-3.29886E-1	-2.53466E-3	-1.47364E+1	-4.94038E+0
-3.39886E-1	-2.54603E-3	-1.48025E+1	-5.11297E+0
-3.49895E-1	-2.53614E-3	-1.47450E+1	-5.24309E+0
-3.59893E-1	-2.54214E-3	-1.47799E+1	-5.40567E+0
-3.69897E-1	-2.54867E-3	-1.48178E+1	-5.57020E+0
-3.79893E-1	-2.55258E-3	-1.48406E+1	-5.72951E+0
-3.89898E-1	-2.55163E-3	-1.48351E+1	-5.87821E+0
-3.99893E-1	-2.54704E-3	-1.48084E+1	-6.01805E+0
-4.09893E-1	-2.55352E-3	-1.48460E+1	-6.18424E+0
-4.19889E-1	-2.54169E-3	-1.47773E+1	-6.30570E+0
-4.29892E-1	-2.54205E-3	-1.47794E+1	-6.45684E+0
-4.39889E-1	-2.55134E-3	-1.48334E+1	-6.63114E+0
-4.49887E-1	-2.54516E-3	-1.47974E+1	-6.76542E+0
-4.59893E-1	-2.54531E-3	-1.47983E+1	-6.91630E+0
-4.69888E-1	-2.55973E-3	-1.48822E+1	-7.10665E+0
-4.79886E-1	-2.55229E-3	-1.48389E+1	-7.23677E+0
-4.89884E-1	-2.55622E-3	-1.48617E+1	-7.39891E+0
-4.99894E-1	-2.56099E-3	-1.48895E+1	-7.56419E+0
-5.09892E-1	-2.56322E-3	-1.49024E+1	-7.72219E+0
-5.19889E-1	-2.56131E-3	-1.48913E+1	-7.86773E+0
-5.29888E-1	-2.56089E-3	-1.48889E+1	-8.01773E+0
-5.39895E-1	-2.57232E-3	-1.49553E+1	-8.20561E+0
-5.49897E-1	-2.56482E-3	-1.49117E+1	-8.33326E+0
-5.59892E-1	-2.56187E-3	-1.48946E+1	-8.47496E+0
-5.69891E-1	-2.56539E-3	-1.49151E+1	-8.63817E+0
-5.79890E-1	-2.55733E-3	-1.48682E+1	-8.76211E+0
-5.89888E-1	-2.57054E-3	-1.49450E+1	-8.95922E+0
-5.99889E-1	-2.56685E-3	-1.49235E+1	-9.09804E+0
-6.09893E-1	-2.56374E-3	-1.49055E+1	-9.23856E+0
-6.19889E-1	-2.58006E-3	-1.50003E+1	-9.44975E+0
-6.29889E-1	-2.57986E-3	-1.49992E+1	-9.60145E+0
-6.39921E-1	-2.57006E-3	-1.49422E+1	-9.71731E+0
-6.49926E-1	-2.57869E-3	-1.49924E+1	-9.90238E+0
-6.59925E-1	-2.58083E-3	-1.50048E+1	-1.00631E+1
-6.69922E-1	-2.57558E-3	-1.49743E+1	-1.01947E+1
-6.79927E-1	-2.58227E-3	-1.50132E+1	-1.03739E+1
-6.89927E-1	-2.57903E-3	-1.49944E+1	-1.05132E+1
-6.99927E-1	-2.57045E-3	-1.49445E+1	-1.06301E+1
-7.09925E-1	-2.57524E-3	-1.49723E+1	-1.08021E+1
-7.19923E-1	-2.58347E-3	-1.50202E+1	-1.09892E+1
-7.29925E-1	-2.58344E-3	-1.50200E+1	-1.11417E+1
-7.39926E-1	-2.58153E-3	-1.50089E+1	-1.12860E+1
-7.49924E-1	-2.59804E-3	-1.51049E+1	-1.15117E+1
-7.59927E-1	-2.59214E-3	-1.50706E+1	-1.16388E+1
-7.69932E-1	-2.57817E-3	-1.49894E+1	-1.17284E+1
-7.79931E-1	-2.58215E-3	-1.50125E+1	-1.18991E+1
-7.89937E-1	-2.59362E-3	-1.50792E+1	-1.21053E+1
-7.99935E-1	-2.58605E-3	-1.50352E+1	-1.22227E+1
-8.09936E-1	-2.59442E-3	-1.50838E+1	-1.24156E+1
-8.19935E-1	-2.59668E-3	-1.50970E+1	-1.25798E+1
-8.29941E-1	-2.58546E-3	-1.50317E+1	-1.26783E+1
-8.39940E-1	-2.59819E-3	-1.51058E+1	-1.28942E+1
-8.49942E-1	-2.60050E-3	-1.51192E+1	-1.30594E+1
-8.59939E-1	-2.59769E-3	-1.51028E+1	-1.31987E+1
-8.69941E-1	-2.60674E-3	-1.51555E+1	-1.33987E+1
-8.79939E-1	-2.60299E-3	-1.51337E+1	-1.35332E+1
-8.89934E-1	-2.59356E-3	-1.50788E+1	-1.36374E+1
-8.99936E-1	-2.59467E-3	-1.50853E+1	-1.37965E+1
-9.09939E-1	-2.60104E-3	-1.51223E+1	-1.39841E+1
-9.19937E-1	-2.58997E-3	-1.50580E+1	-1.40776E+1
-9.29942E-1	-2.59923E-3	-1.51118E+1	-1.42816E+1
-9.39946E-1	-2.59850E-3	-1.51076E+1	-1.44312E+1
-9.49947E-1	-2.59963E-3	-1.51141E+1	-1.45911E+1
-9.59937E-1	-2.61292E-3	-1.51914E+1	-1.48199E+1
-9.69944E-1	-2.60199E-3	-1.51278E+1	-1.49118E+1
-9.79941E-1	-2.59676E-3	-1.50974E+1	-1.50352E+1
-9.89941E-1	-2.60972E-3	-1.51728E+1	-1.52644E+1
-9.99940E-1	-2.60799E-3	-1.51627E+1	-1.54084E+1
-1.00994E+0	-2.60215E-3	-1.51288E+1	-1.55276E+1
8.58946E+0	-1.44784E+1	9.10028E-1	6.41484E-1
8.71602E+0	-1.45898E+1	9.00018E-1	6.53150E-1
8.98157E+0	-1.49083E+1	9.00021E-1	6.58668E-1
9.18784E+0	-1.57491E+1	9.00019E-1	6.37824E-1
9.29311E+0	-1.56335E+1	9.00030E-1	6.49895E-1
9.30932E+0	-1.53796E+1	9.00030E-1	6.61776E-1
