Efficiency(%)	JSC(mA/cm^2)	VOC(V)	FF				 
1.01001E+0	5.54888E-6	3.42523E-2	-3.49447E-2
1.00001E+0	5.52451E-6	3.41019E-2	-3.44467E-2
9.90008E-1	5.45008E-6	3.36425E-2	-3.36427E-2
9.80009E-1	5.37419E-6	3.31740E-2	-3.28392E-2
9.70014E-1	5.29932E-6	3.27119E-2	-3.20515E-2
9.60011E-1	5.22536E-6	3.22553E-2	-3.12782E-2
9.50014E-1	5.15050E-6	3.17932E-2	-3.05091E-2
9.40014E-1	5.07267E-6	3.13128E-2	-2.97318E-2
9.30006E-1	4.99541E-6	3.08359E-2	-2.89672E-2
9.20009E-1	4.92526E-6	3.04028E-2	-2.82534E-2
9.10012E-1	4.85239E-6	2.99530E-2	-2.75329E-2
9.00012E-1	4.77956E-6	2.95035E-2	-2.68217E-2
8.90009E-1	4.70543E-6	2.90459E-2	-2.61122E-2
8.80011E-1	4.63226E-6	2.85942E-2	-2.54174E-2
8.69977E-1	4.56019E-6	2.81493E-2	-2.47366E-2
8.59976E-1	4.48827E-6	2.77054E-2	-2.40666E-2
8.49977E-1	4.41845E-6	2.72744E-2	-2.34168E-2
8.39979E-1	4.34583E-6	2.68261E-2	-2.27610E-2
8.29978E-1	4.27384E-6	2.63817E-2	-2.21174E-2
8.19974E-1	4.20355E-6	2.59478E-2	-2.14915E-2
8.09976E-1	4.13445E-6	2.55213E-2	-2.08804E-2
7.99978E-1	4.06380E-6	2.50852E-2	-2.02703E-2
7.89979E-1	3.99203E-6	2.46422E-2	-1.96634E-2
7.79969E-1	3.92293E-6	2.42156E-2	-1.90782E-2
7.69968E-1	3.85734E-6	2.38107E-2	-1.85187E-2
7.59969E-1	3.79118E-6	2.34023E-2	-1.79647E-2
7.49971E-1	3.72222E-6	2.29767E-2	-1.74059E-2
7.39969E-1	3.65416E-6	2.25565E-2	-1.68597E-2
7.29971E-1	3.58823E-6	2.21496E-2	-1.63319E-2
7.19973E-1	3.52203E-6	2.17409E-2	-1.58110E-2
7.09972E-1	3.45722E-6	2.13409E-2	-1.53045E-2
6.99972E-1	3.39111E-6	2.09328E-2	-1.48004E-2
6.89970E-1	3.32549E-6	2.05277E-2	-1.43066E-2
6.79973E-1	3.26126E-6	2.01312E-2	-1.38270E-2
6.69967E-1	3.19800E-6	1.97407E-2	-1.33592E-2
6.59966E-1	3.13307E-6	1.93399E-2	-1.28926E-2
6.49971E-1	3.07166E-6	1.89609E-2	-1.24485E-2
6.39972E-1	3.00945E-6	1.85769E-2	-1.20088E-2
6.29966E-1	2.94497E-6	1.81788E-2	-1.15677E-2
6.19966E-1	2.88502E-6	1.78088E-2	-1.11524E-2
6.09965E-1	2.82244E-6	1.74225E-2	-1.07344E-2
5.99965E-1	2.76185E-6	1.70485E-2	-1.03318E-2
5.89966E-1	2.70122E-6	1.66742E-2	-9.93658E-3
5.79967E-1	2.64191E-6	1.63081E-2	-9.55369E-3
5.69974E-1	2.58249E-6	1.59413E-2	-9.17790E-3
5.59976E-1	2.52467E-6	1.55844E-2	-8.81503E-3
5.49978E-1	2.46643E-6	1.52249E-2	-8.45793E-3
5.39978E-1	2.40764E-6	1.48620E-2	-8.10620E-3
5.29974E-1	2.35108E-6	1.45128E-2	-7.76912E-3
5.19970E-1	2.29445E-6	1.41633E-2	-7.43886E-3
5.09967E-1	2.23893E-6	1.38206E-2	-7.11922E-3
4.99972E-1	2.18305E-6	1.34756E-2	-6.80549E-3
4.89968E-1	2.12763E-6	1.31335E-2	-6.50000E-3
4.79968E-1	2.07317E-6	1.27973E-2	-6.20436E-3
4.69969E-1	2.01975E-6	1.24676E-2	-5.91857E-3
4.59971E-1	1.96651E-6	1.21390E-2	-5.63996E-3
4.49964E-1	1.91261E-6	1.18062E-2	-5.36604E-3
4.39965E-1	1.85987E-6	1.14807E-2	-5.10212E-3
4.29967E-1	1.80756E-6	1.11578E-2	-4.84594E-3
4.19966E-1	1.75451E-6	1.08303E-2	-4.59430E-3
4.09970E-1	1.70444E-6	1.05212E-2	-4.35696E-3
3.99970E-1	1.65410E-6	1.02105E-2	-4.12514E-3
3.89973E-1	1.60442E-6	9.90383E-3	-3.90124E-3
3.79970E-1	1.55486E-6	9.59790E-3	-3.68375E-3
3.69970E-1	1.50545E-6	9.29290E-3	-3.47282E-3
3.59969E-1	1.45745E-6	8.99660E-3	-3.27121E-3
3.49972E-1	1.40997E-6	8.70352E-3	-3.07676E-3
3.39963E-1	1.36235E-6	8.40957E-3	-2.88782E-3
3.29965E-1	1.31580E-6	8.12222E-3	-2.70712E-3
3.19965E-1	1.26980E-6	7.83827E-3	-2.53331E-3
3.09962E-1	1.22459E-6	7.55920E-3	-2.36673E-3
2.99963E-1	1.17920E-6	7.27901E-3	-2.20549E-3
2.89960E-1	1.13519E-6	7.00735E-3	-2.05237E-3
2.79961E-1	1.09202E-6	6.74086E-3	-1.90624E-3
2.69960E-1	1.04949E-6	6.47833E-3	-1.76656E-3
2.59961E-1	1.00639E-6	6.21228E-3	-1.63126E-3
2.49960E-1	9.65158E-7	5.95777E-3	-1.50425E-3
2.39964E-1	9.23854E-7	5.70280E-3	-1.38229E-3
2.29958E-1	8.83373E-7	5.45292E-3	-1.26661E-3
2.19959E-1	8.42500E-7	5.20062E-3	-1.15548E-3
2.09958E-1	8.02650E-7	4.95463E-3	-1.05077E-3
1.99952E-1	7.63769E-7	4.71462E-3	-9.52221E-4
1.89955E-1	7.24635E-7	4.47306E-3	-8.58262E-4
1.79953E-1	6.87301E-7	4.24260E-3	-7.71180E-4
1.69957E-1	6.49399E-7	4.00864E-3	-6.88177E-4
1.59956E-1	6.13014E-7	3.78404E-3	-6.11393E-4
1.49958E-1	5.76328E-7	3.55758E-3	-5.38876E-4
1.39958E-1	5.39478E-7	3.33011E-3	-4.70784E-4
1.29959E-1	5.03949E-7	3.11080E-3	-4.08360E-4
1.19961E-1	4.68744E-7	2.89348E-3	-3.50611E-4
1.09965E-1	4.34425E-7	2.68164E-3	-2.97865E-4
9.99649E-2	4.00255E-7	2.47071E-3	-2.49479E-4
8.99627E-2	3.66283E-7	2.26101E-3	-2.05461E-4
7.99596E-2	3.32979E-7	2.05543E-3	-1.66011E-4
6.99625E-2	2.99409E-7	1.84820E-3	-1.30611E-4
5.99637E-2	2.66875E-7	1.64738E-3	-9.97806E-5
4.99585E-2	2.33814E-7	1.44330E-3	-7.28333E-5
3.99616E-2	2.01519E-7	1.24394E-3	-5.02121E-5
2.99635E-2	1.71000E-7	1.05556E-3	-3.19476E-5
1.99618E-2	1.36820E-7	8.44568E-4	-1.70294E-5
9.95898E-3	1.04516E-7	6.45160E-4	-6.49004E-6
-4.57764E-5	7.21063E-8	4.45101E-4	2.05809E-8
-9.88793E-3	4.16848E-8	2.57314E-4	2.57000E-6
-1.98941E-2	7.91525E-9	4.88596E-5	9.81835E-7
-2.98932E-2	-2.46031E-8	-1.51871E-4	-4.58577E-6
-3.98946E-2	-5.66108E-8	-3.49449E-4	-1.40820E-5
-4.98917E-2	-9.00627E-8	-5.55943E-4	-2.80171E-5
-5.98979E-2	-1.24711E-7	-7.69821E-4	-4.65764E-5
-6.98984E-2	-1.59448E-7	-9.84247E-4	-6.94922E-5
-7.98965E-2	-1.94148E-7	-1.19844E-3	-9.67187E-5
-8.98952E-2	-2.29414E-7	-1.41614E-3	-1.28590E-4
-9.99017E-2	-2.64562E-7	-1.63310E-3	-1.64797E-4
-1.09901E-1	-3.01402E-7	-1.86051E-3	-2.06537E-4
-1.19901E-1	-3.38358E-7	-2.08863E-3	-2.52958E-4
-1.29900E-1	-3.76140E-7	-2.32185E-3	-3.04655E-4
-1.39895E-1	-4.13795E-7	-2.55429E-3	-3.60942E-4
-1.49899E-1	-4.52662E-7	-2.79421E-3	-4.23080E-4
-1.59895E-1	-4.91822E-7	-3.03594E-3	-4.90335E-4
-1.69899E-1	-5.32430E-7	-3.28660E-3	-5.64031E-4
-1.79898E-1	-5.72118E-7	-3.53159E-3	-6.41744E-4
-1.89896E-1	-6.13541E-7	-3.78729E-3	-7.26456E-4
-1.99895E-1	-6.55540E-7	-4.04654E-3	-8.17054E-4
-2.09907E-1	-6.98936E-7	-4.31442E-3	-9.14775E-4
-2.19909E-1	-7.43462E-7	-4.58927E-3	-1.01942E-3
-2.29907E-1	-7.89062E-7	-4.87075E-3	-1.13113E-3
-2.39911E-1	-8.35154E-7	-5.15527E-3	-1.24930E-3
-2.49908E-1	-8.82159E-7	-5.44543E-3	-1.37460E-3
-2.59907E-1	-9.28112E-7	-5.72909E-3	-1.50407E-3
-2.69908E-1	-9.77121E-7	-6.03161E-3	-1.64442E-3
-2.79909E-1	-1.02640E-6	-6.33580E-3	-1.79136E-3
-2.89907E-1	-1.07801E-6	-6.65438E-3	-1.94864E-3
-2.99907E-1	-1.12927E-6	-6.97080E-3	-2.11171E-3
-3.09905E-1	-1.18265E-6	-7.30031E-3	-2.28525E-3
-3.19906E-1	-1.23679E-6	-7.63451E-3	-2.46699E-3
-3.29906E-1	-1.29230E-6	-7.97716E-3	-2.65830E-3
-3.39905E-1	-1.35030E-6	-8.33519E-3	-2.86179E-3
-3.49912E-1	-1.40849E-6	-8.69438E-3	-3.07300E-3
-3.59910E-1	-1.46836E-6	-9.06395E-3	-3.29516E-3
-3.69909E-1	-1.53158E-6	-9.45420E-3	-3.53252E-3
-3.79907E-1	-1.59694E-6	-9.85765E-3	-3.78282E-3
-3.89910E-1	-1.66403E-6	-1.02718E-2	-4.04553E-3
-3.99906E-1	-1.73288E-6	-1.06968E-2	-4.32092E-3
-4.09903E-1	-1.80588E-6	-1.11474E-2	-4.61551E-3
-4.19900E-1	-1.88262E-6	-1.16211E-2	-4.92899E-3
-4.29904E-1	-1.96295E-6	-1.21170E-2	-5.26175E-3
-4.39903E-1	-2.04921E-6	-1.26494E-2	-5.62074E-3
-4.49902E-1	-2.13994E-6	-1.32095E-2	-6.00301E-3
-4.59906E-1	-2.23821E-6	-1.38161E-2	-6.41830E-3
-4.69904E-1	-2.34600E-6	-1.44815E-2	-6.87364E-3
-4.79903E-1	-2.46382E-6	-1.52088E-2	-7.37246E-3
-4.89903E-1	-2.59382E-6	-1.60112E-2	-7.92318E-3
-4.99909E-1	-2.74382E-6	-1.69372E-2	-8.55256E-3
-5.09906E-1	-2.91247E-6	-1.79782E-2	-9.25980E-3
-5.19908E-1	-3.10673E-6	-1.91773E-2	-1.00712E-2
-5.29908E-1	-3.33516E-6	-2.05874E-2	-1.10196E-2
-5.39910E-1	-3.60751E-6	-2.22686E-2	-1.21445E-2
-5.49910E-1	-3.93655E-6	-2.42997E-2	-1.34976E-2
-5.59907E-1	-4.33517E-6	-2.67603E-2	-1.51346E-2
-5.69906E-1	-4.82993E-6	-2.98144E-2	-1.71630E-2
-5.79904E-1	-5.44950E-6	-3.36389E-2	-1.97044E-2
-5.89906E-1	-6.23163E-6	-3.84669E-2	-2.29210E-2
-5.99900E-1	-7.22837E-6	-4.46196E-2	-2.70377E-2
-6.09906E-1	-8.51026E-6	-5.25325E-2	-3.23635E-2
-6.19902E-1	-1.01683E-5	-6.27673E-2	-3.93026E-2
-6.29900E-1	-1.23197E-5	-7.60475E-2	-4.83862E-2
-6.39933E-1	-1.51347E-5	-9.34241E-2	-6.03890E-2
-6.49940E-1	-1.88018E-5	-1.16060E-1	-7.61943E-2
-6.59939E-1	-2.35854E-5	-1.45589E-1	-9.70503E-2
-6.69940E-1	-2.98178E-5	-1.84060E-1	-1.24555E-1
-6.79941E-1	-3.79143E-5	-2.34039E-1	-1.60740E-1
-6.89943E-1	-4.83686E-5	-2.98572E-1	-2.08078E-1
-6.99942E-1	-6.17538E-5	-3.81196E-1	-2.69510E-1
-7.09946E-1	-7.87366E-5	-4.86028E-1	-3.48539E-1
-7.19945E-1	-9.99945E-5	-6.17250E-1	-4.48875E-1
-7.29946E-1	-1.26254E-4	-7.79346E-1	-5.74627E-1
-7.39949E-1	-1.58094E-4	-9.75889E-1	-7.29402E-1
-7.49948E-1	-1.96126E-4	-1.21065E+0	-9.17099E-1
-7.59948E-1	-2.40765E-4	-1.48620E+0	-1.14085E+0
-7.69949E-1	-2.92284E-4	-1.80422E+0	-1.40319E+0
-7.79947E-1	-3.50822E-4	-2.16557E+0	-1.70609E+0
-7.89954E-1	-4.16470E-4	-2.57080E+0	-2.05133E+0
-7.99954E-1	-4.89040E-4	-3.01877E+0	-2.43927E+0
-8.09954E-1	-5.68468E-4	-3.50906E+0	-2.87089E+0
-8.19953E-1	-6.54458E-4	-4.03986E+0	-3.34596E+0
-8.29957E-1	-7.46957E-4	-4.61085E+0	-3.86546E+0
-8.39958E-1	-8.45583E-4	-5.21965E+0	-4.42857E+0
-8.49958E-1	-9.50101E-4	-5.86482E+0	-5.03520E+0
-8.59956E-1	-1.06068E-3	-6.54741E+0	-5.68736E+0
-8.69954E-1	-1.17642E-3	-7.26185E+0	-6.38129E+0
-8.79956E-1	-1.29748E-3	-8.00914E+0	-7.11888E+0
-8.89953E-1	-1.42351E-3	-8.78710E+0	-7.89910E+0
-8.99956E-1	-1.55453E-3	-9.59586E+0	-8.72309E+0
-9.09955E-1	-1.69012E-3	-1.04328E+1	-9.58931E+0
-9.19951E-1	-1.83022E-3	-1.12977E+1	-1.04983E+1
-9.29950E-1	-1.97461E-3	-1.21890E+1	-1.14496E+1
-9.39957E-1	-2.12328E-3	-1.31067E+1	-1.24441E+1
-9.49952E-1	-2.27595E-3	-1.40491E+1	-1.34808E+1
-9.59954E-1	-2.43249E-3	-1.50154E+1	-1.45597E+1
-9.69957E-1	-2.59293E-3	-1.60057E+1	-1.56817E+1
-9.79956E-1	-2.75704E-3	-1.70188E+1	-1.68461E+1
-9.89953E-1	-2.92462E-3	-1.80532E+1	-1.80524E+1
-9.99950E-1	-3.09572E-3	-1.91094E+1	-1.93014E+1
-1.00995E+0	-3.27027E-3	-2.01869E+1	-2.05936E+1
2.57000E-6	4.45101E-4	-1.98941E-2	2.87333E-1
9.46270E-6	1.21134E-3	-2.98827E-2	2.58800E-1
2.20602E-5	1.81359E-3	-4.98857E-2	2.41396E-1
2.99263E-6	5.51008E-4	-1.98793E-2	2.70476E-1
1.57779E-5	1.51778E-3	-3.98822E-2	2.58046E-1
2.54502E-5	1.51893E-3	-6.98969E-2	2.37318E-1
