Efficiency(%)	JSC(mA/cm^2)	VOC(V)	FF				 
1.01002E+0	1.49127E-5	9.20537E-2	-9.29761E-2
1.00003E+0	1.49420E-5	9.22346E-2	-9.22373E-2
9.90027E-1	1.47307E-5	9.09302E-2	-9.00234E-2
9.80025E-1	1.45411E-5	8.97599E-2	-8.79669E-2
9.70036E-1	1.43211E-5	8.84019E-2	-8.57530E-2
9.60027E-1	1.41054E-5	8.70704E-2	-8.35899E-2
9.50028E-1	1.39163E-5	8.59031E-2	-8.16103E-2
9.40030E-1	1.37119E-5	8.46414E-2	-7.95654E-2
9.30018E-1	1.35042E-5	8.33593E-2	-7.75256E-2
9.20019E-1	1.33074E-5	8.21444E-2	-7.55744E-2
9.10020E-1	1.30992E-5	8.08593E-2	-7.35835E-2
9.00015E-1	1.28938E-5	7.95914E-2	-7.16334E-2
8.90020E-1	1.27061E-5	7.84327E-2	-6.98067E-2
8.80021E-1	1.24995E-5	7.71574E-2	-6.79001E-2
8.69987E-1	1.22935E-5	7.58858E-2	-6.60197E-2
8.59989E-1	1.20880E-5	7.46173E-2	-6.41700E-2
8.49985E-1	1.18877E-5	7.33809E-2	-6.23726E-2
8.39988E-1	1.16957E-5	7.21957E-2	-6.06435E-2
8.29991E-1	1.14989E-5	7.09809E-2	-5.89135E-2
8.19984E-1	1.13080E-5	6.98025E-2	-5.72369E-2
8.09985E-1	1.11213E-5	6.86500E-2	-5.56055E-2
7.99985E-1	1.09106E-5	6.73494E-2	-5.38785E-2
7.89986E-1	1.07437E-5	6.63191E-2	-5.23912E-2
7.79979E-1	1.05501E-5	6.51241E-2	-5.07954E-2
7.69980E-1	1.03534E-5	6.39099E-2	-4.92093E-2
7.59981E-1	1.01765E-5	6.28179E-2	-4.77404E-2
7.49974E-1	9.99418E-6	6.16925E-2	-4.62677E-2
7.39972E-1	9.81351E-6	6.05772E-2	-4.48254E-2
7.29970E-1	9.62668E-6	5.94240E-2	-4.33777E-2
7.19972E-1	9.44827E-6	5.83227E-2	-4.19907E-2
7.09971E-1	9.28599E-6	5.73209E-2	-4.06962E-2
6.99974E-1	9.09553E-6	5.61452E-2	-3.93002E-2
6.89975E-1	8.92539E-6	5.50950E-2	-3.80142E-2
6.79978E-1	8.74880E-6	5.40049E-2	-3.67222E-2
6.69974E-1	8.57989E-6	5.29623E-2	-3.54834E-2
6.59976E-1	8.40595E-6	5.18886E-2	-3.42452E-2
6.49986E-1	8.23782E-6	5.08507E-2	-3.30523E-2
6.39985E-1	8.07237E-6	4.98294E-2	-3.18901E-2
6.29979E-1	7.90496E-6	4.87960E-2	-3.07405E-2
6.19981E-1	7.74294E-6	4.77959E-2	-2.96326E-2
6.09980E-1	7.57430E-6	4.67549E-2	-2.85196E-2
5.99978E-1	7.41394E-6	4.57651E-2	-2.74580E-2
5.89977E-1	7.24731E-6	4.47365E-2	-2.63935E-2
5.79977E-1	7.09004E-6	4.37657E-2	-2.53831E-2
5.69980E-1	6.92988E-6	4.27770E-2	-2.43821E-2
5.59981E-1	6.78095E-6	4.18577E-2	-2.34395E-2
5.49985E-1	6.62540E-6	4.08975E-2	-2.24930E-2
5.39982E-1	6.47298E-6	3.99567E-2	-2.15759E-2
5.29978E-1	6.32742E-6	3.90581E-2	-2.07000E-2
5.19974E-1	6.17319E-6	3.81061E-2	-1.98142E-2
5.09975E-1	6.01706E-6	3.71423E-2	-1.89417E-2
4.99980E-1	5.87306E-6	3.62535E-2	-1.81260E-2
4.89975E-1	5.72347E-6	3.53301E-2	-1.73108E-2
4.79973E-1	5.58119E-6	3.44518E-2	-1.65359E-2
4.69974E-1	5.43249E-6	3.35339E-2	-1.57601E-2
4.59980E-1	5.28981E-6	3.26531E-2	-1.50198E-2
4.49975E-1	5.15104E-6	3.17965E-2	-1.43076E-2
4.39979E-1	5.00712E-6	3.09081E-2	-1.35989E-2
4.29981E-1	4.86581E-6	3.00359E-2	-1.29149E-2
4.19981E-1	4.72594E-6	2.91725E-2	-1.22519E-2
4.09981E-1	4.59169E-6	2.83438E-2	-1.16204E-2
3.99984E-1	4.45593E-6	2.75057E-2	-1.10019E-2
3.89985E-1	4.32285E-6	2.66843E-2	-1.04065E-2
3.79981E-1	4.19770E-6	2.59117E-2	-9.84596E-3
3.69981E-1	4.05945E-6	2.50583E-2	-9.27111E-3
3.59980E-1	3.93166E-6	2.42695E-2	-8.73654E-3
3.49984E-1	3.80764E-6	2.35040E-2	-8.22601E-3
3.39978E-1	3.68033E-6	2.27181E-2	-7.72365E-3
3.29979E-1	3.55628E-6	2.19523E-2	-7.24381E-3
3.19981E-1	3.42749E-6	2.11573E-2	-6.76995E-3
3.09980E-1	3.30543E-6	2.04039E-2	-6.32480E-3
2.99981E-1	3.18152E-6	1.96390E-2	-5.89133E-3
2.89978E-1	3.05913E-6	1.88835E-2	-5.47580E-3
2.79980E-1	2.93819E-6	1.81370E-2	-5.07799E-3
2.69981E-1	2.83158E-6	1.74789E-2	-4.71897E-3
2.59986E-1	2.71711E-6	1.67723E-2	-4.36056E-3
2.49985E-1	2.59963E-6	1.60471E-2	-4.01153E-3
2.39989E-1	2.48937E-6	1.53665E-2	-3.68779E-3
2.29984E-1	2.36632E-6	1.46069E-2	-3.35936E-3
2.19986E-1	2.25939E-6	1.39469E-2	-3.06811E-3
2.09985E-1	2.14600E-6	1.32469E-2	-2.78165E-3
1.99976E-1	2.03889E-6	1.25857E-2	-2.51685E-3
1.89978E-1	1.92952E-6	1.19106E-2	-2.26276E-3
1.79979E-1	1.82520E-6	1.12667E-2	-2.02776E-3
1.69980E-1	1.72198E-6	1.06295E-2	-1.80680E-3
1.59976E-1	1.62017E-6	1.00010E-2	-1.59993E-3
1.49978E-1	1.51553E-6	9.35512E-3	-1.40306E-3
1.39976E-1	1.41410E-6	8.72901E-3	-1.22185E-3
1.29978E-1	1.31527E-6	8.11895E-3	-1.05528E-3
1.19979E-1	1.21533E-6	7.50204E-3	-9.00087E-4
1.09982E-1	1.11428E-6	6.87827E-3	-7.56486E-4
9.99818E-2	1.02083E-6	6.30142E-3	-6.30027E-4
8.99725E-2	9.22435E-7	5.69404E-3	-5.12307E-4
7.99749E-2	8.28049E-7	5.11141E-3	-4.08785E-4
6.99799E-2	7.33653E-7	4.52872E-3	-3.16920E-4
5.99802E-2	6.40072E-7	3.95106E-3	-2.36985E-4
4.99706E-2	5.47381E-7	3.37890E-3	-1.68845E-4
3.99711E-2	4.54975E-7	2.80849E-3	-1.12258E-4
2.99742E-2	3.62016E-7	2.23467E-3	-6.69823E-5
1.99747E-2	2.69449E-7	1.66327E-3	-3.32232E-5
9.97591E-3	1.76131E-7	1.08723E-3	-1.08461E-5
-2.78950E-5	8.49103E-8	5.24138E-4	1.46208E-8
-9.91654E-3	-6.95846E-9	-4.29535E-5	-4.25950E-7
-1.99225E-2	-1.00451E-7	-6.20068E-4	-1.23533E-5
-2.99211E-2	-1.93868E-7	-1.19672E-3	-3.58071E-5
-3.99203E-2	-2.88825E-7	-1.78287E-3	-7.11727E-5
-4.99184E-2	-3.86365E-7	-2.38497E-3	-1.19054E-4
-5.99277E-2	-4.83875E-7	-2.98688E-3	-1.78997E-4
-6.99174E-2	-5.81974E-7	-3.59243E-3	-2.51174E-4
-7.99189E-2	-6.83121E-7	-4.21680E-3	-3.37002E-4
-8.99172E-2	-7.84690E-7	-4.84377E-3	-4.35538E-4
-9.99200E-2	-8.87321E-7	-5.47729E-3	-5.47291E-4
-1.09922E-1	-9.95872E-7	-6.14736E-3	-6.75730E-4
-1.19931E-1	-1.10041E-6	-6.79265E-3	-8.14650E-4
-1.29928E-1	-1.21310E-6	-7.48827E-3	-9.72936E-4
-1.39924E-1	-1.32687E-6	-8.19056E-3	-1.14606E-3
-1.49927E-1	-1.43920E-6	-8.88395E-3	-1.33194E-3
-1.59924E-1	-1.55634E-6	-9.60704E-3	-1.53640E-3
-1.69926E-1	-1.67606E-6	-1.03460E-2	-1.75806E-3
-1.79925E-1	-1.80019E-6	-1.11123E-2	-1.99938E-3
-1.89924E-1	-1.92498E-6	-1.18826E-2	-2.25679E-3
-1.99924E-1	-2.04824E-6	-1.26435E-2	-2.52773E-3
-2.09929E-1	-2.17797E-6	-1.34443E-2	-2.82234E-3
-2.19928E-1	-2.30970E-6	-1.42574E-2	-3.13560E-3
-2.29927E-1	-2.44753E-6	-1.51082E-2	-3.47379E-3
-2.39932E-1	-2.59201E-6	-1.60001E-2	-3.83893E-3
-2.49931E-1	-2.73682E-6	-1.68940E-2	-4.22232E-3
-2.59934E-1	-2.87349E-6	-1.77376E-2	-4.61060E-3
-2.69932E-1	-3.01924E-6	-1.86373E-2	-5.03080E-3
-2.79933E-1	-3.17358E-6	-1.95900E-2	-5.48389E-3
-2.89932E-1	-3.33394E-6	-2.05799E-2	-5.96676E-3
-2.99928E-1	-3.49543E-6	-2.15767E-2	-6.47146E-3
-3.09930E-1	-3.66455E-6	-2.26207E-2	-7.01083E-3
-3.19932E-1	-3.84250E-6	-2.37191E-2	-7.58851E-3
-3.29931E-1	-4.02889E-6	-2.48697E-2	-8.20528E-3
-3.39932E-1	-4.22798E-6	-2.60986E-2	-8.87176E-3
-3.49944E-1	-4.42828E-6	-2.73351E-2	-9.56574E-3
-3.59941E-1	-4.64316E-6	-2.86615E-2	-1.03164E-2
-3.69940E-1	-4.87830E-6	-3.01130E-2	-1.11400E-2
-3.79940E-1	-5.13967E-6	-3.17264E-2	-1.20541E-2
-3.89944E-1	-5.41422E-6	-3.34211E-2	-1.30324E-2
-3.99939E-1	-5.73915E-6	-3.54269E-2	-1.41686E-2
-4.09938E-1	-6.08491E-6	-3.75612E-2	-1.53978E-2
-4.19934E-1	-6.49545E-6	-4.00954E-2	-1.68374E-2
-4.29933E-1	-6.96426E-6	-4.29893E-2	-1.84825E-2
-4.39934E-1	-7.51199E-6	-4.63703E-2	-2.03999E-2
-4.49934E-1	-8.16324E-6	-5.03904E-2	-2.26723E-2
-4.59936E-1	-8.96820E-6	-5.53593E-2	-2.54617E-2
-4.69934E-1	-9.92626E-6	-6.12732E-2	-2.87944E-2
-4.79931E-1	-1.11018E-5	-6.85296E-2	-3.28895E-2
-4.89930E-1	-1.25566E-5	-7.75099E-2	-3.79744E-2
-4.99936E-1	-1.43770E-5	-8.87469E-2	-4.43678E-2
-5.09935E-1	-1.66557E-5	-1.02813E-1	-5.24279E-2
-5.19937E-1	-1.95187E-5	-1.20486E-1	-6.26450E-2
-5.29934E-1	-2.31233E-5	-1.42736E-1	-7.56409E-2
-5.39932E-1	-2.76594E-5	-1.70737E-1	-9.21864E-2
-5.49931E-1	-3.33935E-5	-2.06133E-1	-1.13359E-1
-5.59930E-1	-4.06150E-5	-2.50710E-1	-1.40380E-1
-5.69931E-1	-4.96987E-5	-3.06782E-1	-1.74845E-1
-5.79928E-1	-6.11046E-5	-3.77189E-1	-2.18742E-1
-5.89928E-1	-7.53667E-5	-4.65227E-1	-2.74450E-1
-5.99926E-1	-9.30997E-5	-5.74690E-1	-3.44771E-1
-6.09936E-1	-1.15089E-4	-7.10426E-1	-4.33314E-1
-6.19932E-1	-1.41987E-4	-8.76463E-1	-5.43347E-1
-6.29925E-1	-1.74777E-4	-1.07887E+0	-6.79607E-1
-6.39964E-1	-2.14549E-4	-1.32438E+0	-8.47553E-1
-6.49975E-1	-2.61990E-4	-1.61722E+0	-1.05115E+0
-6.59974E-1	-3.18182E-4	-1.96409E+0	-1.29625E+0
-6.69972E-1	-3.83911E-4	-2.36982E+0	-1.58771E+0
-6.79975E-1	-4.60055E-4	-2.83985E+0	-1.93102E+0
-6.89972E-1	-5.47193E-4	-3.37773E+0	-2.33054E+0
-6.99970E-1	-6.45882E-4	-3.98693E+0	-2.79073E+0
-7.09971E-1	-7.56406E-4	-4.66917E+0	-3.31498E+0
-7.19963E-1	-8.78960E-4	-5.42568E+0	-3.90629E+0
-7.29958E-1	-1.01424E-3	-6.26074E+0	-4.57008E+0
-7.39958E-1	-1.16068E-3	-7.16469E+0	-5.30157E+0
-7.49959E-1	-1.31878E-3	-8.14062E+0	-6.10513E+0
-7.59962E-1	-1.48822E-3	-9.18654E+0	-6.98142E+0
-7.69961E-1	-1.66848E-3	-1.02993E+1	-7.93003E+0
-7.79957E-1	-1.85918E-3	-1.14764E+1	-8.95111E+0
-7.89972E-1	-2.05996E-3	-1.27158E+1	-1.00451E+1
-7.99971E-1	-2.26994E-3	-1.40120E+1	-1.12092E+1
-8.09971E-1	-2.48872E-3	-1.53625E+1	-1.24432E+1
-8.19969E-1	-2.71589E-3	-1.67648E+1	-1.37466E+1
-8.29976E-1	-2.95087E-3	-1.82152E+1	-1.51182E+1
-8.39972E-1	-3.19321E-3	-1.97112E+1	-1.65568E+1
-8.49973E-1	-3.44258E-3	-2.12505E+1	-1.80623E+1
-8.59976E-1	-3.69820E-3	-2.28284E+1	-1.96319E+1
-8.69974E-1	-3.95991E-3	-2.44439E+1	-2.12655E+1
-8.79972E-1	-4.22753E-3	-2.60959E+1	-2.29636E+1
-8.89969E-1	-4.50038E-3	-2.77801E+1	-2.47234E+1
-8.99970E-1	-4.77865E-3	-2.94978E+1	-2.65472E+1
-9.09968E-1	-5.06146E-3	-3.12436E+1	-2.84307E+1
-9.19968E-1	-5.34891E-3	-3.30180E+1	-3.03755E+1
-9.29970E-1	-5.64050E-3	-3.48179E+1	-3.23796E+1
-9.39976E-1	-5.93650E-3	-3.66451E+1	-3.44455E+1
-9.49974E-1	-6.23602E-3	-3.84940E+1	-3.65683E+1
-9.59975E-1	-6.53912E-3	-4.03649E+1	-3.87493E+1
-9.69977E-1	-6.84570E-3	-4.22574E+1	-4.09887E+1
-9.79978E-1	-7.15551E-3	-4.41698E+1	-4.32854E+1
-9.89985E-1	-7.46846E-3	-4.61016E+1	-4.56399E+1
-9.99977E-1	-7.78407E-3	-4.80498E+1	-4.80487E+1
-1.00997E+0	-8.10239E-3	-5.00148E+1	-5.05134E+1
1.46208E-8	5.24138E-4	-9.91654E-3	2.81297E-3
7.68734E-6	1.35578E-3	-1.99120E-2	2.84755E-1
9.13789E-6	1.39181E-3	-2.98319E-2	2.20082E-1
4.47812E-9	2.84585E-4	-9.90319E-3	1.58894E-3
2.28005E-6	8.70574E-4	-9.91631E-3	2.64112E-1
9.59006E-6	1.49741E-3	-2.99320E-2	2.13966E-1
