Efficiency(%)	JSC(mA/cm^2)	VOC(V)	FF				 
1.01002E+0	6.55991E-6	4.04933E-2	-4.08990E-2
1.00002E+0	6.61074E-6	4.08070E-2	-4.08079E-2
9.90014E-1	6.50718E-6	4.01678E-2	-3.97667E-2
9.80016E-1	6.40223E-6	3.95199E-2	-3.87302E-2
9.70019E-1	6.30282E-6	3.89063E-2	-3.77398E-2
9.60016E-1	6.20162E-6	3.82816E-2	-3.67510E-2
9.50015E-1	6.10555E-6	3.76886E-2	-3.58047E-2
9.40016E-1	6.00467E-6	3.70659E-2	-3.48425E-2
9.30010E-1	5.90989E-6	3.64808E-2	-3.39275E-2
9.20013E-1	5.81046E-6	3.58670E-2	-3.29981E-2
9.10016E-1	5.71190E-6	3.52586E-2	-3.20859E-2
9.00017E-1	5.61501E-6	3.46606E-2	-3.11951E-2
8.90013E-1	5.51891E-6	3.40673E-2	-3.03204E-2
8.80016E-1	5.42478E-6	3.34863E-2	-2.94685E-2
8.69982E-1	5.33099E-6	3.29073E-2	-2.86288E-2
8.59982E-1	5.23839E-6	3.23357E-2	-2.78082E-2
8.49983E-1	5.14626E-6	3.17670E-2	-2.70014E-2
8.39983E-1	5.05684E-6	3.12151E-2	-2.62201E-2
8.29983E-1	4.96801E-6	3.06667E-2	-2.54529E-2
8.19980E-1	4.87784E-6	3.01101E-2	-2.46897E-2
8.09979E-1	4.79302E-6	2.95865E-2	-2.39645E-2
7.99979E-1	4.70725E-6	2.90571E-2	-2.32451E-2
7.89980E-1	4.62170E-6	2.85290E-2	-2.25373E-2
7.79968E-1	4.53436E-6	2.79899E-2	-2.18312E-2
7.69972E-1	4.45038E-6	2.74715E-2	-2.11523E-2
7.59975E-1	4.36607E-6	2.69510E-2	-2.04821E-2
7.49974E-1	4.28127E-6	2.64276E-2	-1.98200E-2
7.39970E-1	4.20051E-6	2.59291E-2	-1.91867E-2
7.29968E-1	4.12102E-6	2.54384E-2	-1.85692E-2
7.19968E-1	4.03970E-6	2.49364E-2	-1.79534E-2
7.09969E-1	3.95913E-6	2.44391E-2	-1.73510E-2
6.99969E-1	3.88270E-6	2.39673E-2	-1.67764E-2
6.89969E-1	3.80552E-6	2.34909E-2	-1.62080E-2
6.79973E-1	3.72628E-6	2.30017E-2	-1.56406E-2
6.69968E-1	3.65033E-6	2.25329E-2	-1.50963E-2
6.59969E-1	3.57534E-6	2.20700E-2	-1.45655E-2
6.49968E-1	3.50024E-6	2.16064E-2	-1.40435E-2
6.39971E-1	3.42650E-6	2.11512E-2	-1.35362E-2
6.29967E-1	3.35366E-6	2.07016E-2	-1.30413E-2
6.19964E-1	3.28362E-6	2.02693E-2	-1.25662E-2
6.09966E-1	3.20985E-6	1.98139E-2	-1.20858E-2
5.99962E-1	3.14113E-6	1.93897E-2	-1.16331E-2
5.89965E-1	3.07090E-6	1.89562E-2	-1.11835E-2
5.79965E-1	3.00082E-6	1.85236E-2	-1.07430E-2
5.69968E-1	2.93218E-6	1.80999E-2	-1.03164E-2
5.59968E-1	2.86524E-6	1.76867E-2	-9.90397E-3
5.49969E-1	2.79848E-6	1.72746E-2	-9.50048E-3
5.39969E-1	2.73097E-6	1.68578E-2	-9.10271E-3
5.29969E-1	2.66510E-6	1.64512E-2	-8.71864E-3
5.19965E-1	2.60048E-6	1.60523E-2	-8.34666E-3
5.09966E-1	2.53505E-6	1.56485E-2	-7.98018E-3
4.99966E-1	2.47305E-6	1.52657E-2	-7.63235E-3
4.89961E-1	2.41083E-6	1.48817E-2	-7.29144E-3
4.79963E-1	2.34885E-6	1.44991E-2	-6.95902E-3
4.69965E-1	2.28904E-6	1.41299E-2	-6.64055E-3
4.59963E-1	2.22814E-6	1.37540E-2	-6.32631E-3
4.49959E-1	2.16785E-6	1.33818E-2	-6.02126E-3
4.39962E-1	2.10935E-6	1.30207E-2	-5.72860E-3
4.29965E-1	2.05067E-6	1.26585E-2	-5.44269E-3
4.19965E-1	1.99301E-6	1.23025E-2	-5.16663E-3
4.09966E-1	1.93623E-6	1.19520E-2	-4.89993E-3
3.99968E-1	1.87945E-6	1.16015E-2	-4.64025E-3
3.89968E-1	1.82332E-6	1.12551E-2	-4.38911E-3
3.79967E-1	1.76771E-6	1.09118E-2	-4.14612E-3
3.69966E-1	1.71348E-6	1.05770E-2	-3.91314E-3
3.59968E-1	1.65828E-6	1.02363E-2	-3.68474E-3
3.49966E-1	1.60609E-6	9.91414E-3	-3.46961E-3
3.39962E-1	1.55378E-6	9.59123E-3	-3.26066E-3
3.29966E-1	1.50190E-6	9.27099E-3	-3.05911E-3
3.19966E-1	1.45005E-6	8.95093E-3	-2.86399E-3
3.09961E-1	1.39929E-6	8.63759E-3	-2.67732E-3
2.99960E-1	1.34965E-6	8.33117E-3	-2.49902E-3
2.89957E-1	1.29913E-6	8.01932E-3	-2.32526E-3
2.79962E-1	1.24875E-6	7.70833E-3	-2.15804E-3
2.69959E-1	1.20093E-6	7.41315E-3	-2.00125E-3
2.59960E-1	1.15278E-6	7.11593E-3	-1.84986E-3
2.49964E-1	1.10565E-6	6.82500E-3	-1.70600E-3
2.39971E-1	1.05720E-6	6.52593E-3	-1.56603E-3
2.29968E-1	1.01174E-6	6.24531E-3	-1.43622E-3
2.19962E-1	9.64773E-7	5.95539E-3	-1.30996E-3
2.09964E-1	9.19000E-7	5.67284E-3	-1.19109E-3
1.99958E-1	8.74132E-7	5.39588E-3	-1.07895E-3
1.89960E-1	8.29407E-7	5.11980E-3	-9.72557E-4
1.79959E-1	7.84855E-7	4.84478E-3	-8.71862E-4
1.69965E-1	7.41021E-7	4.57420E-3	-7.77455E-4
1.59958E-1	6.97718E-7	4.30690E-3	-6.88923E-4
1.49962E-1	6.55032E-7	4.04341E-3	-6.06357E-4
1.39956E-1	6.12339E-7	3.77987E-3	-5.29016E-4
1.29959E-1	5.69946E-7	3.51819E-3	-4.57220E-4
1.19960E-1	5.28046E-7	3.25954E-3	-3.91015E-4
1.09962E-1	4.86511E-7	3.00315E-3	-3.30233E-4
9.99637E-2	4.44935E-7	2.74651E-3	-2.74552E-4
8.99601E-2	4.04234E-7	2.49527E-3	-2.24475E-4
7.99615E-2	3.63546E-7	2.24411E-3	-1.79442E-4
6.99630E-2	3.22662E-7	1.99174E-3	-1.39348E-4
5.99642E-2	2.82357E-7	1.74294E-3	-1.04514E-4
4.99566E-2	2.42229E-7	1.49524E-3	-7.46971E-5
3.99573E-2	2.01261E-7	1.24235E-3	-4.96410E-5
2.99573E-2	1.61403E-7	9.96315E-4	-2.98469E-5
1.99583E-2	1.20472E-7	7.43654E-4	-1.48421E-5
9.94921E-3	7.96868E-8	4.91894E-4	-4.89395E-6
-4.36306E-5	3.99612E-8	2.46674E-4	1.07625E-8
-9.87792E-3	-2.13030E-9	-1.31500E-5	-1.29895E-7
-1.98894E-2	-4.40061E-8	-2.71643E-4	-5.40281E-6
-2.98877E-2	-8.53099E-8	-5.26604E-4	-1.57390E-5
-3.98893E-2	-1.30071E-7	-8.02907E-4	-3.20274E-5
-4.98855E-2	-1.74346E-7	-1.07621E-3	-5.36873E-5
-5.98948E-2	-2.19594E-7	-1.35552E-3	-8.11885E-5
-6.98946E-2	-2.65769E-7	-1.64055E-3	-1.14666E-4
-7.98967E-2	-3.13212E-7	-1.93341E-3	-1.54473E-4
-8.98924E-2	-3.61871E-7	-2.23377E-3	-2.00799E-4
-9.98940E-2	-4.10902E-7	-2.53643E-3	-2.53374E-4
-1.09895E-1	-4.61872E-7	-2.85106E-3	-3.13317E-4
-1.19892E-1	-5.14413E-7	-3.17539E-3	-3.80704E-4
-1.29895E-1	-5.67942E-7	-3.50581E-3	-4.55388E-4
-1.39893E-1	-6.23394E-7	-3.84811E-3	-5.38324E-4
-1.49891E-1	-6.80431E-7	-4.20019E-3	-6.29571E-4
-1.59891E-1	-7.38658E-7	-4.55962E-3	-7.29042E-4
-1.69894E-1	-7.99150E-7	-4.93302E-3	-8.38091E-4
-1.79896E-1	-8.60863E-7	-5.31397E-3	-9.55962E-4
-1.89895E-1	-9.24303E-7	-5.70557E-3	-1.08346E-3
-1.99894E-1	-9.90821E-7	-6.11618E-3	-1.22259E-3
-2.09903E-1	-1.05822E-6	-6.53222E-3	-1.37113E-3
-2.19901E-1	-1.12864E-6	-6.96691E-3	-1.53203E-3
-2.29898E-1	-1.20109E-6	-7.41414E-3	-1.70449E-3
-2.39906E-1	-1.27597E-6	-7.87636E-3	-1.88959E-3
-2.49906E-1	-1.35257E-6	-8.34920E-3	-2.08651E-3
-2.59905E-1	-1.43236E-6	-8.84173E-3	-2.29801E-3
-2.69904E-1	-1.51556E-6	-9.35531E-3	-2.52504E-3
-2.79905E-1	-1.60211E-6	-9.88957E-3	-2.76814E-3
-2.89901E-1	-1.68908E-6	-1.04264E-2	-3.02263E-3
-2.99903E-1	-1.78094E-6	-1.09935E-2	-3.29697E-3
-3.09901E-1	-1.87724E-6	-1.15879E-2	-3.59110E-3
-3.19905E-1	-1.97772E-6	-1.22081E-2	-3.90545E-3
-3.29901E-1	-2.08215E-6	-1.28528E-2	-4.24014E-3
-3.39901E-1	-2.19160E-6	-1.35284E-2	-4.59832E-3
-3.49911E-1	-2.30513E-6	-1.42292E-2	-4.97895E-3
-3.59906E-1	-2.42704E-6	-1.49817E-2	-5.39201E-3
-3.69911E-1	-2.55708E-6	-1.57844E-2	-5.83884E-3
-3.79910E-1	-2.69432E-6	-1.66316E-2	-6.31851E-3
-3.89907E-1	-2.84087E-6	-1.75362E-2	-6.83750E-3
-3.99906E-1	-2.99782E-6	-1.85051E-2	-7.40029E-3
-4.09905E-1	-3.16831E-6	-1.95575E-2	-8.01670E-3
-4.19904E-1	-3.35520E-6	-2.07111E-2	-8.69668E-3
-4.29908E-1	-3.56069E-6	-2.19796E-2	-9.44919E-3
-4.39906E-1	-3.78927E-6	-2.33906E-2	-1.02896E-2
-4.49907E-1	-4.04133E-6	-2.49465E-2	-1.12236E-2
-4.59909E-1	-4.32817E-6	-2.67171E-2	-1.22874E-2
-4.69909E-1	-4.65245E-6	-2.87188E-2	-1.34952E-2
-4.79908E-1	-5.02531E-6	-3.10204E-2	-1.48870E-2
-4.89907E-1	-5.45668E-6	-3.36832E-2	-1.65016E-2
-4.99913E-1	-5.95898E-6	-3.67838E-2	-1.83887E-2
-5.09912E-1	-6.55112E-6	-4.04390E-2	-2.06203E-2
-5.19911E-1	-7.24849E-6	-4.47438E-2	-2.32628E-2
-5.29912E-1	-8.08516E-6	-4.99084E-2	-2.64471E-2
-5.39913E-1	-9.08830E-6	-5.61006E-2	-3.02895E-2
-5.49910E-1	-1.02977E-5	-6.35660E-2	-3.49556E-2
-5.59909E-1	-1.17644E-5	-7.26198E-2	-4.06605E-2
-5.69906E-1	-1.35473E-5	-8.36253E-2	-4.76586E-2
-5.79903E-1	-1.57296E-5	-9.70963E-2	-5.63064E-2
-5.89905E-1	-1.84022E-5	-1.13594E-1	-6.70096E-2
-5.99902E-1	-2.16852E-5	-1.33859E-1	-8.03024E-2
-6.09908E-1	-2.57388E-5	-1.58881E-1	-9.69031E-2
-6.19902E-1	-3.07305E-5	-1.89694E-1	-1.17592E-1
-6.29910E-1	-3.68943E-5	-2.27743E-1	-1.43457E-1
-6.39945E-1	-4.45168E-5	-2.74795E-1	-1.75854E-1
-6.49949E-1	-5.38809E-5	-3.32598E-1	-2.16172E-1
-6.59951E-1	-6.53886E-5	-4.03633E-1	-2.66378E-1
-6.69951E-1	-7.95147E-5	-4.90831E-1	-3.28833E-1
-6.79952E-1	-9.67808E-5	-5.97412E-1	-4.06212E-1
-6.89957E-1	-1.17790E-4	-7.27099E-1	-5.01667E-1
-6.99954E-1	-1.43180E-4	-8.83827E-1	-6.18638E-1
-7.09952E-1	-1.73704E-4	-1.07225E+0	-7.61244E-1
-7.19954E-1	-2.10094E-4	-1.29688E+0	-9.33691E-1
-7.29951E-1	-2.53067E-4	-1.56214E+0	-1.14029E+0
-7.39949E-1	-3.03367E-4	-1.87264E+0	-1.38565E+0
-7.49943E-1	-3.61519E-4	-2.23160E+0	-1.67357E+0
-7.59948E-1	-4.28137E-4	-2.64282E+0	-2.00841E+0
-7.69949E-1	-5.03588E-4	-3.10857E+0	-2.39344E+0
-7.79946E-1	-5.88005E-4	-3.62966E+0	-2.83094E+0
-7.89956E-1	-6.81640E-4	-4.20765E+0	-3.32386E+0
-7.99956E-1	-7.84276E-4	-4.84121E+0	-3.87275E+0
-8.09955E-1	-8.95798E-4	-5.52962E+0	-4.47874E+0
-8.19953E-1	-1.01628E-3	-6.27333E+0	-5.14384E+0
-8.29956E-1	-1.14494E-3	-7.06753E+0	-5.86574E+0
-8.39954E-1	-1.28148E-3	-7.91037E+0	-6.64435E+0
-8.49954E-1	-1.42571E-3	-8.80068E+0	-7.48017E+0
-8.59953E-1	-1.57730E-3	-9.73642E+0	-8.37286E+0
-8.69952E-1	-1.73574E-3	-1.07144E+1	-9.32105E+0
-8.79952E-1	-1.90096E-3	-1.17343E+1	-1.03256E+1
-8.89951E-1	-2.07225E-3	-1.27917E+1	-1.13840E+1
-8.99952E-1	-2.24975E-3	-1.38873E+1	-1.24979E+1
-9.09949E-1	-2.43283E-3	-1.50175E+1	-1.36651E+1
-9.19951E-1	-2.62133E-3	-1.61810E+1	-1.48858E+1
-9.29953E-1	-2.81520E-3	-1.73778E+1	-1.61605E+1
-9.39955E-1	-3.01416E-3	-1.86059E+1	-1.74887E+1
-9.49952E-1	-3.21778E-3	-1.98628E+1	-1.88687E+1
-9.59953E-1	-3.42611E-3	-2.11488E+1	-2.03019E+1
-9.69955E-1	-3.63902E-3	-2.24631E+1	-2.17882E+1
-9.79954E-1	-3.85626E-3	-2.38041E+1	-2.33269E+1
-9.89954E-1	-4.07781E-3	-2.51717E+1	-2.49188E+1
-9.99951E-1	-4.30326E-3	-2.65633E+1	-2.65620E+1
-1.00995E+0	-4.53287E-3	-2.79807E+1	-2.82591E+1
1.07625E-8	2.46674E-4	-9.87792E-3	4.41697E-3
3.41803E-6	6.40185E-4	-1.98739E-2	2.68650E-1
4.52767E-6	6.44840E-4	-2.98798E-2	2.34988E-1
3.63492E-9	1.16381E-4	-9.86338E-3	3.16655E-3
1.59180E-6	4.12275E-4	-1.98805E-2	1.94211E-1
4.24141E-6	6.97951E-4	-2.98853E-2	2.03342E-1
